-1.435294151306152344e+00,2.588235139846801758e-01,-1.749019622802734375e+00,2.509803771972656250e-01,2.980391979217529297e-01,-1.639215707778930664e+00,-3.240152597427368164e-01,-1.749019622802734375e+00,2.509803771972656250e-01,-6.043942570686340332e-01,-1.623529434204101562e+00,-6.265451908111572266e-01,2.509803771972656250e-01,-3.327965438365936279e-01,-1.725490212440490723e+00,3.299196958541870117e-01,6.980391740798950195e-01,4.392156600952148438e-01,2.509803771972656250e-01,-3.418183326721191406e-01,3.999999761581420898e-01,2.588235139846801758e-01,-1.574262976646423340e+00,1.574927568435668945e-01,1.114985942840576172e-01,-1.600000023841857910e+00,2.588235139846801758e-01,2.509803771972656250e-01,-1.655149459838867188e-01,2.588235139846801758e-01,-1.607843160629272461e+00,2.299513220787048340e-01,2.509803771972656250e-01,-1.461425304412841797e+00,1.567978858947753906e-01,-6.548481583595275879e-01,2.163816094398498535e-01,2.509803771972656250e-01,-1.749019622802734375e+00,5.203310847282409668e-01,6.823529005050659180e-01,5.275994539260864258e-02,2.509803771972656250e-01,-4.015577733516693115e-01,2.509803771972656250e-01,-1.647058844566345215e+00,-1.623524665832519531e+00,2.509803771972656250e-01,-1.431836843490600586e+00,2.588235139846801758e-01,-1.654901981353759766e+00,-1.557404279708862305e+00,2.509803771972656250e-01,-1.749019622802734375e+00,2.588235139846801758e-01,-1.670588254928588867e+00,-1.642618536949157715e+00,2.509803771972656250e-01,-9.310493469238281250e-01,2.509803771972656250e-01,2.536742687225341797e-01,-9.388741850852966309e-01,-1.295073866844177246e+00,7.294117212295532227e-01,3.450980186462402344e-01,3.058823347091674805e-01,-6.260901093482971191e-01,2.509803771972656250e-01,-1.202978610992431641e+00,2.509803771972656250e-01,-1.508563518524169922e+00,-1.631372570991516113e+00,2.509803771972656250e-01,-1.581631779670715332e+00,2.588235139846801758e-01,-6.595476269721984863e-01,-1.615686297416687012e+00,2.509803771972656250e-01,-1.290600776672363281e+00,2.509803771972656250e-01,-5.676127672195434570e-01,-1.607843160629272461e+00,2.588235139846801758e-01,2.509803771972656250e-01,-1.749019622802734375e+00,-1.741176486015319824e+00,-1.261080265045166016e+00,5.568627119064331055e-01,-3.947710394859313965e-01,2.509803771972656250e-01,-3.191526234149932861e-01,-7.244499325752258301e-01,2.666666507720947266e-01,-9.830502271652221680e-01,2.509803771972656250e-01,2.588235139846801758e-01,-1.615686297416687012e+00,2.328312993049621582e-01,2.509803771972656250e-01,-1.049474835395812988e+00,2.509803771972656250e-01,-1.631372570991516113e+00,-8.023148775100708008e-02,2.509803771972656250e-01,-9.714922308921813965e-01,-6.413498520851135254e-01,3.149169087409973145e-01,2.980391979217529297e-01,-1.749019622802734375e+00,1.003150939941406250e-01,7.372548580169677734e-01,-1.291354417800903320e+00,3.137254714965820312e-01,-2.606272697448730469e-02,-7.802792787551879883e-01,2.588235139846801758e-01,-1.662745118141174316e+00,-1.578869104385375977e+00,2.509803771972656250e-01,-1.749019622802734375e+00,2.509803771972656250e-01,-1.678431391716003418e+00,-1.654901981353759766e+00,2.509803771972656250e-01,-1.749019622802734375e+00,2.509803771972656250e-01,-1.686274528503417969e+00,-1.647058844566345215e+00,2.509803771972656250e-01,2.509803771972656250e-01,2.509803771972656250e-01,-1.701960802078247070e+00,-1.529411792755126953e+00,7.215685844421386719e-01,-1.717647075653076172e+00,2.588235139846801758e-01,-1.653602719306945801e-01,-1.250981569290161133e+00,2.509803771972656250e-01,-1.749019622802734375e+00,2.509803771972656250e-01,-3.812849521636962891e-03,-1.607843160629272461e+00,2.588235139846801758e-01,-9.584060311317443848e-01,2.509803771972656250e-01,-3.457388281822204590e-01,-1.600000023841857910e+00,2.588235139846801758e-01,1.425473093986511230e-01,2.509803771972656250e-01,-7.596138715744018555e-01,-1.534975051879882812e+00,2.588235139846801758e-01,2.509803771972656250e-01,-1.741176486015319824e+00,1.978152990341186523e-01,7.686274051666259766e-01,-5.854082107543945312e-02,2.509803771972656250e-01,-4.931226074695587158e-01,2.509803771972656250e-01,-1.435670375823974609e+00,-7.908661961555480957e-01,2.509803771972656250e-01,-2.966269850730895996e-01,2.509803771972656250e-01,-1.631372570991516113e+00,-7.556194067001342773e-01,2.509803771972656250e-01,-1.749019622802734375e+00,2.588235139846801758e-01,-1.647058844566345215e+00,-5.580064058303833008e-01,2.509803771972656250e-01,-1.650128483772277832e+00,2.588235139846801758e-01,2.646455764770507812e-01,3.215686082839965820e-01,-1.749019622802734375e+00,-2.235811948776245117e-02,7.058823108673095703e-01,-1.670588254928588867e+00,3.372548818588256836e-01,2.509803771972656250e-01,-1.229767322540283203e+00,2.509803771972656250e-01,-1.678431391716003418e+00,-1.654901981353759766e+00,2.509803771972656250e-01,-1.749019622802734375e+00,2.509803771972656250e-01,-1.694117665290832520e+00,-1.639215707778930664e+00,2.509803771972656250e-01,-1.749019622802734375e+00,2.588235139846801758e-01,-1.163069963455200195e+00,-1.631372570991516113e+00,2.509803771972656250e-01,2.509803771972656250e-01,2.450364828109741211e-02,-1.717647075653076172e+00,-3.799301981925964355e-01,7.058823108673095703e-01,-3.474283218383789062e-01,2.509803771972656250e-01,-4.539617300033569336e-01,-9.058713912963867188e-04,2.509803771972656250e-01,-1.749019622802734375e+00,2.509803771972656250e-01,4.565918445587158203e-02,-1.592156887054443359e+00,2.588235139846801758e-01,2.071871757507324219e-01,5.827134847640991211e-02,2.421617507934570312e-01,-1.607843160629272461e+00,2.666666507720947266e-01,2.509803771972656250e-01,-1.044691324234008789e+00,-3.301290273666381836e-01,-5.055987834930419922e-01,2.823529243469238281e-01,2.509803771972656250e-01,-1.749019622802734375e+00,5.803921222686767578e-01,6.431372165679931641e-01,2.901960611343383789e-01,2.588235139846801758e-01,-4.292041957378387451e-01,2.588235139846801758e-01,-1.639215707778930664e+00,-1.320512294769287109e+00,2.509803771972656250e-01,-1.053056597709655762e+00,2.588235139846801758e-01,-1.647058844566345215e+00,-1.287166118621826172e+00,2.509803771972656250e-01,-1.749019622802734375e+00,2.509803771972656250e-01,-1.662745118141174316e+00,-1.183096170425415039e+00,2.509803771972656250e-01,-4.812336564064025879e-01,2.509803771972656250e-01,1.530421972274780273e-01,-4.942168593406677246e-01,-3.166030049324035645e-01,-4.544866383075714111e-01,3.372548818588256836e-01,-1.749019622802734375e+00
-8.424088358879089355e-01,2.588235139846801758e-01,-1.749019622802734375e+00,2.509803771972656250e-01,2.980391979217529297e-01,-1.639215707778930664e+00,1.250148415565490723e-01,-1.749019622802734375e+00,2.509803771972656250e-01,2.901960611343383789e-01,-1.623529434204101562e+00,-7.241750955581665039e-01,2.509803771972656250e-01,-2.670258283615112305e-01,-1.725490212440490723e+00,3.921568393707275391e-01,6.980391740798950195e-01,4.392156600952148438e-01,2.509803771972656250e-01,-2.161577343940734863e-01,2.448468804359436035e-01,2.588235139846801758e-01,-1.749019622802734375e+00,2.509803771972656250e-01,2.588235139846801758e-01,-1.600000023841857910e+00,2.588235139846801758e-01,2.509803771972656250e-01,2.509803771972656250e-01,2.588235139846801758e-01,-1.607843160629272461e+00,2.745097875595092773e-01,2.509803771972656250e-01,-1.749019622802734375e+00,2.588235139846801758e-01,-2.513288855552673340e-01,1.496839523315429688e-02,2.509803771972656250e-01,-1.749019622802734375e+00,5.333333015441894531e-01,6.823529005050659180e-01,-9.061872959136962891e-03,2.509803771972656250e-01,-1.749019622802734375e+00,2.509803771972656250e-01,-1.647058844566345215e+00,-1.513697504997253418e+00,2.509803771972656250e-01,-1.749019622802734375e+00,2.588235139846801758e-01,-1.654901981353759766e+00,-1.678431391716003418e+00,2.509803771972656250e-01,-1.749019622802734375e+00,2.588235139846801758e-01,-1.670588254928588867e+00,-1.670588254928588867e+00,2.509803771972656250e-01,-1.344271421432495117e+00,2.509803771972656250e-01,3.137254714965820312e-01,3.529411554336547852e-01,3.137254714965820312e-01,7.294117212295532227e-01,3.450980186462402344e-01,3.058823347091674805e-01,-1.063772916793823242e+00,2.509803771972656250e-01,-1.749019622802734375e+00,2.509803771972656250e-01,1.699745655059814453e-03,-1.631372570991516113e+00,2.509803771972656250e-01,-1.749019622802734375e+00,2.588235139846801758e-01,2.823529243469238281e-01,-1.615686297416687012e+00,2.509803771972656250e-01,-1.716021418571472168e+00,2.509803771972656250e-01,2.666666507720947266e-01,-1.607843160629272461e+00,2.588235139846801758e-01,2.509803771972656250e-01,-1.706621646881103516e+00,-1.741176486015319824e+00,1.585384011268615723e-01,5.568627119064331055e-01,-1.546562671661376953e+00,2.509803771972656250e-01,-6.995989680290222168e-01,-1.600000023841857910e+00,2.666666507720947266e-01,-8.507186174392700195e-01,2.509803771972656250e-01,2.588235139846801758e-01,-1.615686297416687012e+00,2.745097875595092773e-01,2.509803771972656250e-01,-1.143273234367370605e+00,2.509803771972656250e-01,-1.631372570991516113e+00,2.901960611343383789e-01,2.509803771972656250e-01,-1.085860848426818848e+00,2.509803771972656250e-01,3.607842922210693359e-01,2.980391979217529297e-01,-1.749019622802734375e+00,3.686274290084838867e-01,7.372548580169677734e-01,-1.455973505973815918e+00,3.137254714965820312e-01,-9.855189323425292969e-01,-1.749019622802734375e+00,2.588235139846801758e-01,-1.662745118141174316e+00,-1.670588254928588867e+00,2.509803771972656250e-01,-1.749019622802734375e+00,2.509803771972656250e-01,-1.678431391716003418e+00,-1.654901981353759766e+00,2.509803771972656250e-01,-1.749019622802734375e+00,2.509803771972656250e-01,-1.153791666030883789e+00,-1.647058844566345215e+00,2.509803771972656250e-01,2.509803771972656250e-01,2.509803771972656250e-01,-1.701960802078247070e+00,-2.279766798019409180e-01,7.215685844421386719e-01,-1.717647075653076172e+00,2.588235139846801758e-01,-1.010442972183227539e-01,-1.623529434204101562e+00,2.509803771972656250e-01,-1.749019622802734375e+00,2.509803771972656250e-01,2.745097875595092773e-01,-1.607843160629272461e+00,2.588235139846801758e-01,-1.112906336784362793e+00,2.509803771972656250e-01,2.666666507720947266e-01,-1.600000023841857910e+00,2.588235139846801758e-01,2.509803771972656250e-01,2.509803771972656250e-01,2.588235139846801758e-01,-1.310850977897644043e+00,2.588235139846801758e-01,2.509803771972656250e-01,-1.741176486015319824e+00,4.235293865203857422e-01,7.686274051666259766e-01,-3.345659375190734863e-01,2.509803771972656250e-01,-1.749019622802734375e+00,2.509803771972656250e-01,-1.623529434204101562e+00,-7.121110558509826660e-01,2.509803771972656250e-01,-3.673660755157470703e-01,2.509803771972656250e-01,-1.631372570991516113e+00,-6.395943760871887207e-01,2.509803771972656250e-01,-1.749019622802734375e+00,2.588235139846801758e-01,-1.647058844566345215e+00,-2.992414832115173340e-01,2.509803771972656250e-01,-1.749019622802734375e+00,2.588235139846801758e-01,3.450980186462402344e-01,3.215686082839965820e-01,-1.749019622802734375e+00,3.921568393707275391e-01,7.058823108673095703e-01,-1.670588254928588867e+00,3.372548818588256836e-01,-5.792516469955444336e-02,-1.749019622802734375e+00,2.509803771972656250e-01,-1.486260890960693359e+00,-1.654901981353759766e+00,2.509803771972656250e-01,-1.749019622802734375e+00,2.509803771972656250e-01,-4.953446984291076660e-01,-1.639215707778930664e+00,2.509803771972656250e-01,-1.749019622802734375e+00,2.588235139846801758e-01,1.749810576438903809e-01,-1.631372570991516113e+00,2.509803771972656250e-01,2.509803771972656250e-01,2.509803771972656250e-01,-1.717647075653076172e+00,4.156862497329711914e-01,7.058823108673095703e-01,-5.793271660804748535e-01,2.509803771972656250e-01,-3.465155363082885742e-01,-5.962284207344055176e-01,2.509803771972656250e-01,-1.749019622802734375e+00,2.509803771972656250e-01,2.588235139846801758e-01,-1.592156887054443359e+00,2.588235139846801758e-01,2.509803771972656250e-01,2.509803771972656250e-01,2.588235139846801758e-01,-1.607843160629272461e+00,2.666666507720947266e-01,2.509803771972656250e-01,-1.162133216857910156e+00,2.509803771972656250e-01,1.301955580711364746e-01,2.817597389221191406e-01,2.509803771972656250e-01,-1.749019622802734375e+00,5.803921222686767578e-01,6.431372165679931641e-01,1.410055756568908691e-01,2.588235139846801758e-01,-1.749019622802734375e+00,2.588235139846801758e-01,-1.639215707778930664e+00,-8.362793326377868652e-01,2.509803771972656250e-01,-1.749019622802734375e+00,2.588235139846801758e-01,-1.647058844566345215e+00,-1.590272545814514160e+00,2.509803771972656250e-01,-1.749019622802734375e+00,2.509803771972656250e-01,-1.662745118141174316e+00,-1.375123620033264160e+00,2.509803771972656250e-01,-7.126448750495910645e-01,2.509803771972656250e-01,3.294117450714111328e-01,2.743857502937316895e-01,3.294117450714111328e-01,3.479411005973815918e-01,3.372548818588256836e-01,-2.804850339889526367e-01
-5.869079828262329102e-01,2.588235139846801758e-01,-1.749019622802734375e+00,1.866824626922607422e-01,2.980391979217529297e-01,-1.639215707778930664e+00,-1.467547655105590820e+00,-1.749019622802734375e+00,2.509803771972656250e-01,-5.614578723907470703e-03,-1.623529434204101562e+00,-1.749019622802734375e+00,2.509803771972656250e-01,-1.749019622802734375e+00,-1.725490212440490723e+00,3.921568393707275391e-01,6.980391740798950195e-01,4.392156600952148438e-01,-3.896979093551635742e-01,-1.741176486015319824e+00,2.918904423713684082e-01,2.588235139846801758e-01,-1.749019622802734375e+00,-1.506782174110412598e-01,2.588235139846801758e-01,-1.600000023841857910e+00,2.588235139846801758e-01,2.509803771972656250e-01,-1.060237169265747070e+00,2.588235139846801758e-01,-1.607843160629272461e+00,-7.779582142829895020e-01,2.509803771972656250e-01,-1.749019622802734375e+00,2.588235139846801758e-01,-1.623529434204101562e+00,-1.221397280693054199e+00,2.509803771972656250e-01,-1.749019622802734375e+00,5.333333015441894531e-01,6.823529005050659180e-01,-6.904178857803344727e-01,2.509803771972656250e-01,-1.749019622802734375e+00,2.509803771972656250e-01,-1.647058844566345215e+00,-1.694117665290832520e+00,2.509803771972656250e-01,-1.749019622802734375e+00,2.588235139846801758e-01,-1.654901981353759766e+00,-1.678431391716003418e+00,2.509803771972656250e-01,-1.749019622802734375e+00,2.588235139846801758e-01,-1.670588254928588867e+00,-1.670588254928588867e+00,2.509803771972656250e-01,-1.749019622802734375e+00,-1.062143683433532715e+00,-7.620109915733337402e-01,1.411411762237548828e-01,3.137254714965820312e-01,7.294117212295532227e-01,3.450980186462402344e-01,3.058823347091674805e-01,-1.639215707778930664e+00,2.509803771972656250e-01,-1.749019622802734375e+00,2.509803771972656250e-01,-1.701960802078247070e+00,-1.631372570991516113e+00,2.509803771972656250e-01,-1.749019622802734375e+00,2.588235139846801758e-01,-5.070789456367492676e-01,-1.615686297416687012e+00,2.509803771972656250e-01,-1.749019622802734375e+00,2.509803771972656250e-01,-3.235630989074707031e-01,-1.607843160629272461e+00,2.588235139846801758e-01,2.509803771972656250e-01,-1.749019622802734375e+00,-1.741176486015319824e+00,3.332182765007019043e-01,5.568627119064331055e-01,-1.749019622802734375e+00,7.469844818115234375e-02,-1.741176486015319824e+00,-1.600000023841857910e+00,2.666666507720947266e-01,-1.749019622802734375e+00,-1.567251682281494141e+00,2.588235139846801758e-01,-1.615686297416687012e+00,-7.206506133079528809e-01,2.509803771972656250e-01,-1.749019622802734375e+00,2.509803771972656250e-01,-1.631372570991516113e+00,-1.165157318115234375e+00,2.509803771972656250e-01,-1.749019622802734375e+00,-1.039651036262512207e+00,-4.737264513969421387e-01,2.980391979217529297e-01,-1.749019622802734375e+00,3.686274290084838867e-01,7.372548580169677734e-01,-1.283973932266235352e+00,3.137254714965820312e-01,-1.749019622802734375e+00,-1.749019622802734375e+00,2.588235139846801758e-01,-1.662745118141174316e+00,-1.670588254928588867e+00,2.509803771972656250e-01,-1.749019622802734375e+00,2.509803771972656250e-01,-1.678431391716003418e+00,-1.654901981353759766e+00,2.509803771972656250e-01,-1.749019622802734375e+00,2.509803771972656250e-01,-1.686274528503417969e+00,-1.647058844566345215e+00,2.509803771972656250e-01,-6.823572516441345215e-01,-1.628692626953125000e+00,-1.701960802078247070e+00,4.705882072448730469e-01,7.215685844421386719e-01,-1.717647075653076172e+00,2.588235139846801758e-01,-1.709803938865661621e+00,-1.623529434204101562e+00,2.509803771972656250e-01,-1.749019622802734375e+00,2.509803771972656250e-01,-9.234464168548583984e-02,-1.607843160629272461e+00,2.588235139846801758e-01,-1.749019622802734375e+00,2.509803771972656250e-01,2.666666507720947266e-01,-1.600000023841857910e+00,2.588235139846801758e-01,-3.682028651237487793e-01,-1.720486283302307129e-01,-3.784193992614746094e-01,-1.600000023841857910e+00,-1.014925837516784668e-01,2.509803771972656250e-01,-1.741176486015319824e+00,4.235293865203857422e-01,7.686274051666259766e-01,2.823529243469238281e-01,2.509803771972656250e-01,-1.749019622802734375e+00,2.509803771972656250e-01,-1.623529434204101562e+00,-1.717647075653076172e+00,2.509803771972656250e-01,-1.749019622802734375e+00,2.509803771972656250e-01,-1.631372570991516113e+00,-1.701960802078247070e+00,2.509803771972656250e-01,-1.749019622802734375e+00,2.588235139846801758e-01,-1.647058844566345215e+00,-1.694117665290832520e+00,2.509803771972656250e-01,-1.749019622802734375e+00,9.740120172500610352e-02,-2.473092675209045410e-01,3.215686082839965820e-01,-1.749019622802734375e+00,3.921568393707275391e-01,7.058823108673095703e-01,-1.670588254928588867e+00,3.372548818588256836e-01,-1.749019622802734375e+00,-1.749019622802734375e+00,2.509803771972656250e-01,-1.678431391716003418e+00,-1.654901981353759766e+00,2.509803771972656250e-01,-1.749019622802734375e+00,2.509803771972656250e-01,-1.694117665290832520e+00,-1.639215707778930664e+00,2.509803771972656250e-01,-1.749019622802734375e+00,2.588235139846801758e-01,-1.709803938865661621e+00,-1.631372570991516113e+00,-2.379710078239440918e-01,2.509803771972656250e-01,-1.749019622802734375e+00,-1.717647075653076172e+00,4.156862497329711914e-01,7.058823108673095703e-01,-9.762682914733886719e-01,2.509803771972656250e-01,-1.733333349227905273e+00,-2.096657156944274902e-01,2.509803771972656250e-01,-1.749019622802734375e+00,2.509803771972656250e-01,-8.311998844146728516e-02,-1.592156887054443359e+00,2.588235139846801758e-01,2.509803771972656250e-01,-4.010205864906311035e-01,2.588235139846801758e-01,-1.607843160629272461e+00,-3.966987133026123047e-03,2.509803771972656250e-01,-1.749019622802734375e+00,2.509803771972656250e-01,-1.615686297416687012e+00,-1.082497000694274902e+00,2.509803771972656250e-01,-1.749019622802734375e+00,5.803921222686767578e-01,6.431372165679931641e-01,-3.493704199790954590e-01,6.467241048812866211e-02,-1.749019622802734375e+00,2.588235139846801758e-01,-1.639215707778930664e+00,-1.701960802078247070e+00,2.509803771972656250e-01,-1.749019622802734375e+00,2.588235139846801758e-01,-1.647058844566345215e+00,-1.686274528503417969e+00,2.509803771972656250e-01,-1.749019622802734375e+00,2.509803771972656250e-01,-1.662745118141174316e+00,-1.670588254928588867e+00,2.509803771972656250e-01,-1.749019622802734375e+00,-1.222415804862976074e+00,-1.464967489242553711e+00,3.372548818588256836e-01,3.294117450714111328e-01,-1.294117689132690430e+00,3.372548818588256836e-01,-1.302287697792053223e+00
-7.177914381027221680e-01,2.588235139846801758e-01,-1.749019622802734375e+00,1.827578544616699219e-01,2.980391979217529297e-01,-1.639215707778930664e+00,-1.749019622802734375e+00,-1.749019622802734375e+00,2.509803771972656250e-01,-1.709803938865661621e+00,-1.623529434204101562e+00,-1.749019622802734375e+00,2.509803771972656250e-01,-1.749019622802734375e+00,-1.725490212440490723e+00,3.921568393707275391e-01,6.980391740798950195e-01,4.392156600952148438e-01,-5.949798226356506348e-01,-1.741176486015319824e+00,3.999999761581420898e-01,2.588235139846801758e-01,-1.749019622802734375e+00,-1.422119855880737305e+00,2.588235139846801758e-01,-1.600000023841857910e+00,2.588235139846801758e-01,2.509803771972656250e-01,-1.749019622802734375e+00,2.588235139846801758e-01,-1.607843160629272461e+00,-1.361646533012390137e+00,2.509803771972656250e-01,-1.749019622802734375e+00,2.588235139846801758e-01,-1.623529434204101562e+00,-1.717647075653076172e+00,2.509803771972656250e-01,-1.749019622802734375e+00,5.333333015441894531e-01,6.823529005050659180e-01,-9.375929832458496094e-03,2.509803771972656250e-01,-1.749019622802734375e+00,2.509803771972656250e-01,-1.647058844566345215e+00,-1.694117665290832520e+00,2.509803771972656250e-01,-1.749019622802734375e+00,2.588235139846801758e-01,-1.654901981353759766e+00,-1.678431391716003418e+00,2.509803771972656250e-01,-1.749019622802734375e+00,2.588235139846801758e-01,-1.670588254928588867e+00,-1.670588254928588867e+00,2.509803771972656250e-01,-1.749019622802734375e+00,-1.749019622802734375e+00,-6.953917741775512695e-01,3.529411554336547852e-01,2.165453433990478516e-01,3.541749119758605957e-01,-8.000195026397705078e-02,3.058823347091674805e-01,-1.639215707778930664e+00,-2.173486351966857910e-01,-1.749019622802734375e+00,2.509803771972656250e-01,-1.701960802078247070e+00,-1.631372570991516113e+00,2.509803771972656250e-01,-1.749019622802734375e+00,2.588235139846801758e-01,-1.626537919044494629e+00,-1.615686297416687012e+00,2.509803771972656250e-01,-1.749019622802734375e+00,2.509803771972656250e-01,-1.429842114448547363e+00,-1.607843160629272461e+00,2.588235139846801758e-01,2.509803771972656250e-01,-1.749019622802734375e+00,-1.741176486015319824e+00,-7.696590423583984375e-01,5.568627119064331055e-01,-1.749019622802734375e+00,-8.874022960662841797e-02,-1.741176486015319824e+00,-1.600000023841857910e+00,-4.529124498367309570e-02,-1.749019622802734375e+00,-1.473872423171997070e+00,2.588235139846801758e-01,-1.615686297416687012e+00,-1.039293646812438965e+00,2.509803771972656250e-01,-1.749019622802734375e+00,2.509803771972656250e-01,-1.631372570991516113e+00,-1.709803938865661621e+00,2.509803771972656250e-01,-1.749019622802734375e+00,-1.724705576896667480e+00,-1.195965409278869629e+00,2.980391979217529297e-01,-1.749019622802734375e+00,3.686274290084838867e-01,7.372548580169677734e-01,-1.615686297416687012e+00,3.137254714965820312e-01,-1.749019622802734375e+00,-1.749019622802734375e+00,2.588235139846801758e-01,-1.662745118141174316e+00,-1.670588254928588867e+00,2.509803771972656250e-01,-1.749019622802734375e+00,2.509803771972656250e-01,-1.678431391716003418e+00,-1.654901981353759766e+00,2.509803771972656250e-01,-1.749019622802734375e+00,2.509803771972656250e-01,-1.686274528503417969e+00,-1.647058844566345215e+00,2.509803771972656250e-01,-1.022414088249206543e+00,-1.749019622802734375e+00,-1.701960802078247070e+00,4.705882072448730469e-01,7.215685844421386719e-01,-1.717647075653076172e+00,2.588235139846801758e-01,-1.709803938865661621e+00,-1.623529434204101562e+00,2.509803771972656250e-01,-1.749019622802734375e+00,2.509803771972656250e-01,2.745097875595092773e-01,-1.607843160629272461e+00,2.588235139846801758e-01,-1.749019622802734375e+00,-1.558728218078613281e-01,-5.957875847816467285e-01,-1.600000023841857910e+00,2.588235139846801758e-01,-5.323640108108520508e-01,-1.749019622802734375e+00,-1.168493747711181641e+00,-1.600000023841857910e+00,-5.996020436286926270e-01,2.509803771972656250e-01,-1.741176486015319824e+00,4.235293865203857422e-01,7.686274051666259766e-01,2.823529243469238281e-01,2.509803771972656250e-01,-1.749019622802734375e+00,2.509803771972656250e-01,-1.623529434204101562e+00,-1.717647075653076172e+00,2.509803771972656250e-01,-1.749019622802734375e+00,2.509803771972656250e-01,-1.631372570991516113e+00,-1.701960802078247070e+00,2.509803771972656250e-01,-1.749019622802734375e+00,2.588235139846801758e-01,-1.647058844566345215e+00,-1.694117665290832520e+00,2.509803771972656250e-01,-1.749019622802734375e+00,-3.335900902748107910e-01,-4.287084937095642090e-01,3.215686082839965820e-01,-1.749019622802734375e+00,3.921568393707275391e-01,7.058823108673095703e-01,-1.670588254928588867e+00,3.372548818588256836e-01,-1.749019622802734375e+00,-1.749019622802734375e+00,2.509803771972656250e-01,-1.678431391716003418e+00,-1.654901981353759766e+00,2.509803771972656250e-01,-1.749019622802734375e+00,2.509803771972656250e-01,-1.694117665290832520e+00,-1.639215707778930664e+00,2.509803771972656250e-01,-1.749019622802734375e+00,2.588235139846801758e-01,-1.709803938865661621e+00,-1.631372570991516113e+00,-8.844453692436218262e-01,2.509803771972656250e-01,-1.749019622802734375e+00,-1.717647075653076172e+00,4.156862497329711914e-01,7.058823108673095703e-01,-1.623529434204101562e+00,2.509803771972656250e-01,-1.733333349227905273e+00,-4.529389739036560059e-01,2.509803771972656250e-01,-1.749019622802734375e+00,2.509803771972656250e-01,2.588235139846801758e-01,-1.592156887054443359e+00,2.588235139846801758e-01,-1.343839764595031738e-01,-1.749019622802734375e+00,2.588235139846801758e-01,-1.607843160629272461e+00,-7.702568769454956055e-01,2.509803771972656250e-01,-1.749019622802734375e+00,2.509803771972656250e-01,-1.615686297416687012e+00,-1.717647075653076172e+00,2.509803771972656250e-01,-1.749019622802734375e+00,5.803921222686767578e-01,6.431372165679931641e-01,2.094545960426330566e-01,2.588235139846801758e-01,-1.749019622802734375e+00,2.588235139846801758e-01,-1.639215707778930664e+00,-1.701960802078247070e+00,2.509803771972656250e-01,-1.749019622802734375e+00,2.588235139846801758e-01,-1.647058844566345215e+00,-1.686274528503417969e+00,2.509803771972656250e-01,-1.749019622802734375e+00,2.509803771972656250e-01,-1.662745118141174316e+00,-1.670588254928588867e+00,2.509803771972656250e-01,-1.749019622802734375e+00,-1.550240278244018555e+00,-3.187813758850097656e-01,3.372548818588256836e-01,3.294117450714111328e-01,-1.294117689132690430e+00,3.372548818588256836e-01,-8.201451301574707031e-01
-3.050698637962341309e-01,2.588235139846801758e-01,-1.749019622802734375e+00,2.509803771972656250e-01,2.980391979217529297e-01,-1.639215707778930664e+00,1.740156412124633789e-01,-1.749019622802734375e+00,2.509803771972656250e-01,2.901960611343383789e-01,-1.623529434204101562e+00,-1.224851489067077637e+00,2.509803771972656250e-01,-1.749019622802734375e+00,-1.725490212440490723e+00,3.921568393707275391e-01,6.980391740798950195e-01,4.392156600952148438e-01,2.509803771972656250e-01,2.588235139846801758e-01,3.999999761581420898e-01,-5.556002259254455566e-01,-1.749019622802734375e+00,2.509803771972656250e-01,2.588235139846801758e-01,-1.600000023841857910e+00,2.588235139846801758e-01,2.509803771972656250e-01,2.509803771972656250e-01,2.588235139846801758e-01,-1.607843160629272461e+00,2.745097875595092773e-01,2.509803771972656250e-01,-1.749019622802734375e+00,2.588235139846801758e-01,-1.293932676315307617e+00,-6.286308765411376953e-01,2.509803771972656250e-01,-1.749019622802734375e+00,5.333333015441894531e-01,6.823529005050659180e-01,2.980391979217529297e-01,2.509803771972656250e-01,-1.749019622802734375e+00,2.509803771972656250e-01,-1.647058844566345215e+00,-1.694117665290832520e+00,2.509803771972656250e-01,-1.749019622802734375e+00,2.588235139846801758e-01,-1.654901981353759766e+00,-1.678431391716003418e+00,2.509803771972656250e-01,-1.749019622802734375e+00,2.588235139846801758e-01,-1.670588254928588867e+00,-1.670588254928588867e+00,2.509803771972656250e-01,-1.749019622802734375e+00,2.509803771972656250e-01,3.137254714965820312e-01,3.529411554336547852e-01,3.137254714965820312e-01,7.294117212295532227e-01,3.450980186462402344e-01,3.058823347091674805e-01,-1.313765525817871094e+00,-7.467774152755737305e-01,-1.749019622802734375e+00,2.509803771972656250e-01,2.980391979217529297e-01,-1.631372570991516113e+00,2.509803771972656250e-01,-1.749019622802734375e+00,2.588235139846801758e-01,2.823529243469238281e-01,-1.615686297416687012e+00,2.509803771972656250e-01,-1.486515998840332031e+00,2.509803771972656250e-01,2.666666507720947266e-01,-1.607843160629272461e+00,2.588235139846801758e-01,2.509803771972656250e-01,-1.749019622802734375e+00,-1.741176486015319824e+00,-3.218351602554321289e-01,5.568627119064331055e-01,-9.231553077697753906e-01,2.509803771972656250e-01,-1.564675569534301758e-02,-1.600000023841857910e+00,2.666666507720947266e-01,2.509803771972656250e-01,2.509803771972656250e-01,2.588235139846801758e-01,-1.615686297416687012e+00,2.745097875595092773e-01,2.509803771972656250e-01,-1.749019622802734375e+00,2.509803771972656250e-01,-1.631372570991516113e+00,2.901960611343383789e-01,2.509803771972656250e-01,-1.749019622802734375e+00,2.509803771972656250e-01,3.607842922210693359e-01,2.980391979217529297e-01,-1.749019622802734375e+00,3.686274290084838867e-01,7.372548580169677734e-01,3.843137025833129883e-01,3.137254714965820312e-01,-1.749019622802734375e+00,-1.749019622802734375e+00,2.588235139846801758e-01,-1.662745118141174316e+00,-1.670588254928588867e+00,2.509803771972656250e-01,-1.749019622802734375e+00,2.509803771972656250e-01,-1.678431391716003418e+00,-1.654901981353759766e+00,2.509803771972656250e-01,-1.749019622802734375e+00,2.509803771972656250e-01,-9.328999519348144531e-01,-1.647058844566345215e+00,2.509803771972656250e-01,2.509803771972656250e-01,-4.420155286788940430e-02,-8.069671392440795898e-01,4.705882072448730469e-01,7.215685844421386719e-01,-1.717647075653076172e+00,2.588235139846801758e-01,1.185131072998046875e-02,-1.623529434204101562e+00,2.509803771972656250e-01,-1.749019622802734375e+00,2.509803771972656250e-01,2.745097875595092773e-01,-1.607843160629272461e+00,2.588235139846801758e-01,-1.021000146865844727e+00,2.509803771972656250e-01,2.666666507720947266e-01,-1.600000023841857910e+00,2.588235139846801758e-01,2.509803771972656250e-01,2.509803771972656250e-01,2.588235139846801758e-01,-1.600000023841857910e+00,2.588235139846801758e-01,2.509803771972656250e-01,-1.741176486015319824e+00,4.235293865203857422e-01,7.686274051666259766e-01,2.823529243469238281e-01,2.509803771972656250e-01,-1.749019622802734375e+00,2.509803771972656250e-01,-1.623529434204101562e+00,-1.478274106979370117e+00,2.509803771972656250e-01,-1.749019622802734375e+00,2.509803771972656250e-01,-1.631372570991516113e+00,-1.388582587242126465e+00,2.509803771972656250e-01,-1.749019622802734375e+00,2.588235139846801758e-01,-1.647058844566345215e+00,-7.728707790374755859e-01,2.509803771972656250e-01,-1.749019622802734375e+00,2.588235139846801758e-01,3.450980186462402344e-01,3.215686082839965820e-01,-1.749019622802734375e+00,3.921568393707275391e-01,7.058823108673095703e-01,-3.467167019844055176e-01,3.372548818588256836e-01,-1.749019622802734375e+00,-1.749019622802734375e+00,2.509803771972656250e-01,-1.271580815315246582e+00,-1.654901981353759766e+00,2.509803771972656250e-01,-1.749019622802734375e+00,2.509803771972656250e-01,-2.338726520538330078e-01,-1.639215707778930664e+00,2.509803771972656250e-01,-1.749019622802734375e+00,2.588235139846801758e-01,2.901960611343383789e-01,-1.631372570991516113e+00,2.509803771972656250e-01,2.509803771972656250e-01,-1.034823179244995117e+00,-1.717647075653076172e+00,4.156862497329711914e-01,7.058823108673095703e-01,-1.308996975421905518e-01,2.509803771972656250e-01,2.666666507720947266e-01,3.921568393707275391e-01,2.509803771972656250e-01,-1.749019622802734375e+00,2.509803771972656250e-01,2.588235139846801758e-01,-1.592156887054443359e+00,2.588235139846801758e-01,2.509803771972656250e-01,2.509803771972656250e-01,2.588235139846801758e-01,-1.607843160629272461e+00,2.666666507720947266e-01,2.509803771972656250e-01,-1.749019622802734375e+00,2.509803771972656250e-01,-8.204978704452514648e-01,-7.242539525032043457e-01,2.509803771972656250e-01,-1.749019622802734375e+00,5.803921222686767578e-01,6.431372165679931641e-01,2.901960611343383789e-01,2.588235139846801758e-01,-1.749019622802734375e+00,2.588235139846801758e-01,-1.639215707778930664e+00,-1.701960802078247070e+00,2.509803771972656250e-01,-1.749019622802734375e+00,2.588235139846801758e-01,-1.647058844566345215e+00,-1.686274528503417969e+00,2.509803771972656250e-01,-1.749019622802734375e+00,2.509803771972656250e-01,-1.662745118141174316e+00,-1.670588254928588867e+00,2.509803771972656250e-01,-1.749019622802734375e+00,2.509803771972656250e-01,3.294117450714111328e-01,2.352696657180786133e-02,3.294117450714111328e-01,-6.896228790283203125e-01,3.372548818588256836e-01,-1.762080192565917969e-02
-5.217415094375610352e-02,2.588235139846801758e-01,-1.749019622802734375e+00,-2.426143884658813477e-01,2.980391979217529297e-01,-1.639215707778930664e+00,-1.749019622802734375e+00,-1.749019622802734375e+00,2.509803771972656250e-01,-1.709803938865661621e+00,-1.623529434204101562e+00,-1.749019622802734375e+00,2.509803771972656250e-01,-1.749019622802734375e+00,-1.725490212440490723e+00,3.921568393707275391e-01,6.980391740798950195e-01,4.392156600952148438e-01,-1.749019622802734375e+00,-1.741176486015319824e+00,-2.888376712799072266e-01,-1.312422990798950195e+00,-1.749019622802734375e+00,-1.187738299369812012e+00,2.588235139846801758e-01,-1.600000023841857910e+00,2.515046000480651855e-01,1.814834475517272949e-01,-1.749019622802734375e+00,2.588235139846801758e-01,-1.607843160629272461e+00,-1.725490212440490723e+00,2.509803771972656250e-01,-1.749019622802734375e+00,2.588235139846801758e-01,-1.623529434204101562e+00,-1.717647075653076172e+00,2.509803771972656250e-01,-1.749019622802734375e+00,5.333333015441894531e-01,6.823529005050659180e-01,-1.701960802078247070e+00,-3.553712368011474609e-01,-1.749019622802734375e+00,2.509803771972656250e-01,-1.647058844566345215e+00,-1.694117665290832520e+00,2.509803771972656250e-01,-1.749019622802734375e+00,2.588235139846801758e-01,-1.654901981353759766e+00,-1.678431391716003418e+00,2.509803771972656250e-01,-1.749019622802734375e+00,2.588235139846801758e-01,-1.670588254928588867e+00,-1.670588254928588867e+00,2.509803771972656250e-01,-1.749019622802734375e+00,-1.749019622802734375e+00,-1.686274528503417969e+00,-1.647058844566345215e+00,-1.686274528503417969e+00,7.294117212295532227e-01,-6.317233443260192871e-01,3.058823347091674805e-01,-1.639215707778930664e+00,-9.878093004226684570e-01,-1.749019622802734375e+00,2.509803771972656250e-01,-1.701960802078247070e+00,-1.631372570991516113e+00,2.509803771972656250e-01,-1.749019622802734375e+00,2.588235139846801758e-01,-1.717647075653076172e+00,-1.615686297416687012e+00,2.509803771972656250e-01,-1.749019622802734375e+00,2.509803771972656250e-01,-1.463104605674743652e+00,-1.607843160629272461e+00,1.701912283897399902e-01,2.509803771972656250e-01,-1.749019622802734375e+00,-1.741176486015319824e+00,1.279485821723937988e-01,5.568627119064331055e-01,-1.749019622802734375e+00,-1.749019622802734375e+00,-1.741176486015319824e+00,-1.600000023841857910e+00,2.666666507720947266e-01,-1.749019622802734375e+00,-1.749019622802734375e+00,2.588235139846801758e-01,-1.615686297416687012e+00,-1.725490212440490723e+00,2.509803771972656250e-01,-1.749019622802734375e+00,2.509803771972656250e-01,-1.631372570991516113e+00,-1.709803938865661621e+00,2.509803771972656250e-01,-1.749019622802734375e+00,-1.347532629966735840e+00,-1.639215707778930664e+00,2.980391979217529297e-01,-1.749019622802734375e+00,3.686274290084838867e-01,7.372548580169677734e-01,-1.615686297416687012e+00,3.137254714965820312e-01,-1.749019622802734375e+00,-1.749019622802734375e+00,2.588235139846801758e-01,-1.662745118141174316e+00,-1.670588254928588867e+00,2.509803771972656250e-01,-1.749019622802734375e+00,2.509803771972656250e-01,-1.678431391716003418e+00,-1.654901981353759766e+00,2.509803771972656250e-01,-1.749019622802734375e+00,2.509803771972656250e-01,-1.686274528503417969e+00,-1.647058844566345215e+00,2.509803771972656250e-01,-1.749019622802734375e+00,-1.749019622802734375e+00,-1.701960802078247070e+00,-6.687797307968139648e-01,7.215685844421386719e-01,-1.717647075653076172e+00,2.588235139846801758e-01,-1.709803938865661621e+00,-1.623529434204101562e+00,2.509803771972656250e-01,-1.749019622802734375e+00,2.509803771972656250e-01,-4.350301325321197510e-01,-1.607843160629272461e+00,2.588235139846801758e-01,-1.749019622802734375e+00,-6.416254043579101562e-01,-4.842520952224731445e-01,-1.600000023841857910e+00,2.588235139846801758e-01,-6.209317445755004883e-01,-1.749019622802734375e+00,-1.167964577674865723e+00,-1.600000023841857910e+00,-9.689069986343383789e-01,2.509803771972656250e-01,-1.741176486015319824e+00,4.235293865203857422e-01,7.686274051666259766e-01,-7.249602079391479492e-01,-1.400185227394104004e-01,-1.749019622802734375e+00,2.509803771972656250e-01,-1.623529434204101562e+00,-1.717647075653076172e+00,2.509803771972656250e-01,-1.749019622802734375e+00,2.509803771972656250e-01,-1.631372570991516113e+00,-1.701960802078247070e+00,2.509803771972656250e-01,-1.749019622802734375e+00,2.588235139846801758e-01,-1.647058844566345215e+00,-1.694117665290832520e+00,2.509803771972656250e-01,-1.749019622802734375e+00,-5.551814436912536621e-01,-1.654901981353759766e+00,-5.020457506179809570e-02,-1.749019622802734375e+00,3.921568393707275391e-01,7.058823108673095703e-01,-1.670588254928588867e+00,3.372548818588256836e-01,-1.749019622802734375e+00,-1.749019622802734375e+00,2.509803771972656250e-01,-1.678431391716003418e+00,-1.654901981353759766e+00,2.509803771972656250e-01,-1.749019622802734375e+00,2.509803771972656250e-01,-1.694117665290832520e+00,-1.639215707778930664e+00,2.509803771972656250e-01,-1.749019622802734375e+00,2.588235139846801758e-01,-1.709803938865661621e+00,-1.631372570991516113e+00,-1.659567594528198242e+00,2.509803771972656250e-01,-1.749019622802734375e+00,-1.717647075653076172e+00,4.156862497329711914e-01,7.058823108673095703e-01,-1.623529434204101562e+00,-1.064867138862609863e+00,-1.733333349227905273e+00,-8.541057109832763672e-01,2.509803771972656250e-01,-1.749019622802734375e+00,2.509803771972656250e-01,2.296187877655029297e-01,-1.592156887054443359e+00,2.588235139846801758e-01,-6.241742372512817383e-01,-1.749019622802734375e+00,2.588235139846801758e-01,-1.607843160629272461e+00,-1.337811589241027832e+00,2.509803771972656250e-01,-1.749019622802734375e+00,1.974673867225646973e-01,-1.615686297416687012e+00,-1.717647075653076172e+00,-1.249518990516662598e-01,-1.749019622802734375e+00,5.803921222686767578e-01,6.431372165679931641e-01,-1.599185705184936523e+00,-1.607130050659179688e+00,-1.749019622802734375e+00,2.588235139846801758e-01,-1.639215707778930664e+00,-1.701960802078247070e+00,2.509803771972656250e-01,-1.749019622802734375e+00,2.588235139846801758e-01,-1.647058844566345215e+00,-1.686274528503417969e+00,2.509803771972656250e-01,-1.749019622802734375e+00,2.509803771972656250e-01,-1.662745118141174316e+00,-1.670588254928588867e+00,2.509803771972656250e-01,-1.749019622802734375e+00,-1.749019622802734375e+00,-1.670588254928588867e+00,-1.662745118141174316e+00,3.294117450714111328e-01,6.934597492218017578e-01,-1.096024751663208008e+00,-7.131565809249877930e-01
4.556888341903686523e-02,2.588235139846801758e-01,-1.749019622802734375e+00,2.509803771972656250e-01,2.980391979217529297e-01,-1.639215707778930664e+00,-1.749019622802734375e+00,-1.749019622802734375e+00,2.509803771972656250e-01,2.901960611343383789e-01,-1.623529434204101562e+00,-1.749019622802734375e+00,2.509803771972656250e-01,-1.749019622802734375e+00,-1.725490212440490723e+00,3.921568393707275391e-01,6.980391740798950195e-01,4.392156600952148438e-01,-1.749019622802734375e+00,-2.120373249053955078e-01,3.999999761581420898e-01,-1.584438443183898926e+00,-1.749019622802734375e+00,2.509803771972656250e-01,2.588235139846801758e-01,-1.600000023841857910e+00,2.588235139846801758e-01,2.509803771972656250e-01,-2.599081397056579590e-01,2.588235139846801758e-01,-1.607843160629272461e+00,1.757985353469848633e-02,2.509803771972656250e-01,-1.749019622802734375e+00,2.588235139846801758e-01,-1.623529434204101562e+00,-1.034881830215454102e+00,2.509803771972656250e-01,-1.749019622802734375e+00,5.333333015441894531e-01,6.823529005050659180e-01,-1.701960802078247070e+00,8.016794919967651367e-02,-1.749019622802734375e+00,2.509803771972656250e-01,-1.647058844566345215e+00,-1.694117665290832520e+00,2.509803771972656250e-01,-1.749019622802734375e+00,2.588235139846801758e-01,-1.654901981353759766e+00,-1.678431391716003418e+00,2.509803771972656250e-01,-1.749019622802734375e+00,2.588235139846801758e-01,-1.670588254928588867e+00,-1.670588254928588867e+00,2.509803771972656250e-01,-1.749019622802734375e+00,2.509803771972656250e-01,3.137254714965820312e-01,-1.271291255950927734e+00,3.137254714965820312e-01,7.294117212295532227e-01,3.450980186462402344e-01,3.058823347091674805e-01,-1.639215707778930664e+00,2.277844548225402832e-01,-1.749019622802734375e+00,2.509803771972656250e-01,2.980391979217529297e-01,-1.631372570991516113e+00,2.509803771972656250e-01,-1.749019622802734375e+00,2.588235139846801758e-01,2.823529243469238281e-01,-1.615686297416687012e+00,2.509803771972656250e-01,-1.749019622802734375e+00,2.509803771972656250e-01,2.666666507720947266e-01,-1.607843160629272461e+00,2.588235139846801758e-01,2.509803771972656250e-01,-1.749019622802734375e+00,-1.741176486015319824e+00,7.215685844421386719e-01,5.568627119064331055e-01,-1.749019622802734375e+00,-1.108211874961853027e+00,2.588235139846801758e-01,-1.600000023841857910e+00,-1.639762520790100098e-01,2.509803771972656250e-01,1.162659525871276855e-01,2.588235139846801758e-01,-1.615686297416687012e+00,2.745097875595092773e-01,2.509803771972656250e-01,-1.749019622802734375e+00,2.509803771972656250e-01,-1.631372570991516113e+00,-4.337642192840576172e-01,2.509803771972656250e-01,-1.749019622802734375e+00,2.509803771972656250e-01,-1.112855315208435059e+00,2.980391979217529297e-01,-1.749019622802734375e+00,3.686274290084838867e-01,7.372548580169677734e-01,-1.615686297416687012e+00,3.137254714965820312e-01,-1.749019622802734375e+00,-1.749019622802734375e+00,2.588235139846801758e-01,-1.662745118141174316e+00,-1.670588254928588867e+00,2.509803771972656250e-01,-1.749019622802734375e+00,2.509803771972656250e-01,-1.678431391716003418e+00,-1.654901981353759766e+00,2.509803771972656250e-01,-1.749019622802734375e+00,2.509803771972656250e-01,-1.686274528503417969e+00,-1.647058844566345215e+00,2.509803771972656250e-01,-7.539506554603576660e-01,7.086783647537231445e-02,-1.701960802078247070e+00,4.705882072448730469e-01,7.215685844421386719e-01,-1.717647075653076172e+00,2.588235139846801758e-01,-1.630773544311523438e+00,-1.623529434204101562e+00,2.509803771972656250e-01,-1.749019622802734375e+00,2.509803771972656250e-01,2.745097875595092773e-01,-1.607843160629272461e+00,2.588235139846801758e-01,-1.614221692085266113e+00,2.509803771972656250e-01,2.666666507720947266e-01,-1.600000023841857910e+00,2.588235139846801758e-01,2.509803771972656250e-01,2.509803771972656250e-01,2.588235139846801758e-01,-1.600000023841857910e+00,-3.539569377899169922e-01,2.509803771972656250e-01,-1.741176486015319824e+00,4.235293865203857422e-01,7.686274051666259766e-01,-1.717647075653076172e+00,2.509803771972656250e-01,-1.749019622802734375e+00,2.509803771972656250e-01,-1.623529434204101562e+00,-1.673138976097106934e+00,2.509803771972656250e-01,-1.749019622802734375e+00,2.509803771972656250e-01,-1.631372570991516113e+00,-1.701960802078247070e+00,2.509803771972656250e-01,-1.749019622802734375e+00,2.588235139846801758e-01,-1.647058844566345215e+00,-1.460413813591003418e+00,2.509803771972656250e-01,-1.749019622802734375e+00,2.588235139846801758e-01,-7.613946199417114258e-01,3.215686082839965820e-01,-1.749019622802734375e+00,3.921568393707275391e-01,7.058823108673095703e-01,-1.670588254928588867e+00,3.372548818588256836e-01,-1.749019622802734375e+00,-1.749019622802734375e+00,2.509803771972656250e-01,-1.496489167213439941e+00,-1.654901981353759766e+00,2.509803771972656250e-01,-1.749019622802734375e+00,2.509803771972656250e-01,-1.569474220275878906e+00,-1.639215707778930664e+00,2.509803771972656250e-01,-1.749019622802734375e+00,2.588235139846801758e-01,-1.301755905151367188e-01,-1.631372570991516113e+00,-3.163135051727294922e-01,2.509803771972656250e-01,-1.498173475265502930e+00,-1.717647075653076172e+00,4.156862497329711914e-01,7.058823108673095703e-01,-1.623529434204101562e+00,-3.566862940788269043e-01,-4.407664537429809570e-01,-3.202039599418640137e-01,1.145878434181213379e-01,-1.749019622802734375e+00,2.509803771972656250e-01,2.588235139846801758e-01,-1.592156887054443359e+00,2.588235139846801758e-01,2.509803771972656250e-01,2.509803771972656250e-01,2.588235139846801758e-01,-1.607843160629272461e+00,2.666666507720947266e-01,2.509803771972656250e-01,-1.749019622802734375e+00,2.509803771972656250e-01,-1.615686297416687012e+00,-1.460800647735595703e+00,2.509803771972656250e-01,-1.749019622802734375e+00,5.803921222686767578e-01,6.431372165679931641e-01,-1.709803938865661621e+00,-1.123470664024353027e+00,-1.749019622802734375e+00,2.588235139846801758e-01,-1.639215707778930664e+00,-1.701960802078247070e+00,2.509803771972656250e-01,-1.749019622802734375e+00,2.588235139846801758e-01,-1.647058844566345215e+00,-1.686274528503417969e+00,2.509803771972656250e-01,-1.749019622802734375e+00,2.509803771972656250e-01,-1.662745118141174316e+00,-1.670588254928588867e+00,2.509803771972656250e-01,-1.749019622802734375e+00,2.509803771972656250e-01,3.294117450714111328e-01,-1.662745118141174316e+00,3.294117450714111328e-01,2.684484720230102539e-01,-4.420774579048156738e-01,2.509803771972656250e-01
4.417465329170227051e-01,2.588235139846801758e-01,-1.749019622802734375e+00,2.509803771972656250e-01,2.980391979217529297e-01,-1.639215707778930664e+00,-1.749019622802734375e+00,-1.749019622802734375e+00,2.509803771972656250e-01,-4.827355146408081055e-01,-1.623529434204101562e+00,-1.749019622802734375e+00,2.509803771972656250e-01,-1.749019622802734375e+00,-1.725490212440490723e+00,3.921568393707275391e-01,6.980391740798950195e-01,-1.767996549606323242e-01,-1.749019622802734375e+00,-1.427264928817749023e+00,-1.468148827552795410e+00,-1.741176486015319824e+00,-1.749019622802734375e+00,2.509803771972656250e-01,2.588235139846801758e-01,-1.600000023841857910e+00,-8.162158727645874023e-02,2.509803771972656250e-01,-1.434254050254821777e+00,2.588235139846801758e-01,-1.607843160629272461e+00,-1.516611576080322266e+00,2.509803771972656250e-01,-1.749019622802734375e+00,2.588235139846801758e-01,-1.623529434204101562e+00,-7.273985743522644043e-01,2.509803771972656250e-01,-1.749019622802734375e+00,5.333333015441894531e-01,6.823529005050659180e-01,-1.701960802078247070e+00,-3.975906968116760254e-01,-1.749019622802734375e+00,2.509803771972656250e-01,-1.647058844566345215e+00,-1.694117665290832520e+00,2.509803771972656250e-01,-1.749019622802734375e+00,2.588235139846801758e-01,-1.654901981353759766e+00,-1.678431391716003418e+00,2.509803771972656250e-01,-1.749019622802734375e+00,2.588235139846801758e-01,-1.670588254928588867e+00,-1.670588254928588867e+00,2.509803771972656250e-01,-1.749019622802734375e+00,2.509803771972656250e-01,-1.215244412422180176e+00,-1.647058844566345215e+00,3.137254714965820312e-01,7.294117212295532227e-01,3.450980186462402344e-01,1.180791258811950684e-01,-1.639215707778930664e+00,-8.097615838050842285e-01,-1.749019622802734375e+00,2.509803771972656250e-01,-1.701960802078247070e+00,-1.631372570991516113e+00,2.509803771972656250e-01,-1.749019622802734375e+00,2.588235139846801758e-01,-9.611594080924987793e-01,-1.615686297416687012e+00,2.509803771972656250e-01,-1.749019622802734375e+00,2.509803771972656250e-01,2.037225961685180664e-01,-1.607843160629272461e+00,2.588235139846801758e-01,2.509803771972656250e-01,-1.749019622802734375e+00,-1.741176486015319824e+00,7.215685844421386719e-01,5.568627119064331055e-01,-1.749019622802734375e+00,-1.749019622802734375e+00,-1.741176486015319824e+00,-1.600000023841857910e+00,2.666666507720947266e-01,2.509803771972656250e-01,-1.749019622802734375e+00,2.588235139846801758e-01,-1.615686297416687012e+00,-1.725490212440490723e+00,2.509803771972656250e-01,-1.749019622802734375e+00,2.509803771972656250e-01,-1.631372570991516113e+00,-1.709803938865661621e+00,2.509803771972656250e-01,-1.749019622802734375e+00,2.509803771972656250e-01,-1.639215707778930664e+00,2.980391979217529297e-01,-1.749019622802734375e+00,3.686274290084838867e-01,7.372548580169677734e-01,-1.615686297416687012e+00,-7.794255614280700684e-01,-1.749019622802734375e+00,-1.749019622802734375e+00,2.588235139846801758e-01,-1.662745118141174316e+00,-1.670588254928588867e+00,2.509803771972656250e-01,-1.749019622802734375e+00,2.509803771972656250e-01,-1.678431391716003418e+00,-1.654901981353759766e+00,2.509803771972656250e-01,-1.749019622802734375e+00,2.509803771972656250e-01,-1.686274528503417969e+00,-1.647058844566345215e+00,2.509803771972656250e-01,-1.192031979560852051e+00,-9.207746982574462891e-01,-1.701960802078247070e+00,4.705882072448730469e-01,7.215685844421386719e-01,-1.717647075653076172e+00,2.588235139846801758e-01,-1.709803938865661621e+00,-1.623529434204101562e+00,2.509803771972656250e-01,-1.749019622802734375e+00,2.509803771972656250e-01,-5.400490760803222656e-01,-1.607843160629272461e+00,2.588235139846801758e-01,-1.749019622802734375e+00,2.509803771972656250e-01,2.666666507720947266e-01,-1.600000023841857910e+00,2.588235139846801758e-01,2.509803771972656250e-01,-1.502466678619384766e+00,-3.252143263816833496e-01,-1.600000023841857910e+00,2.588235139846801758e-01,2.509803771972656250e-01,-1.741176486015319824e+00,4.235293865203857422e-01,7.686274051666259766e-01,-1.717647075653076172e+00,2.509803771972656250e-01,-1.749019622802734375e+00,2.509803771972656250e-01,-1.623529434204101562e+00,-1.095193862915039062e+00,2.509803771972656250e-01,-1.749019622802734375e+00,2.509803771972656250e-01,-1.631372570991516113e+00,-1.701960802078247070e+00,2.509803771972656250e-01,-1.749019622802734375e+00,2.588235139846801758e-01,-1.647058844566345215e+00,-1.694117665290832520e+00,2.509803771972656250e-01,-1.749019622802734375e+00,2.588235139846801758e-01,-1.654901981353759766e+00,3.215686082839965820e-01,-1.749019622802734375e+00,3.921568393707275391e-01,7.058823108673095703e-01,-1.670588254928588867e+00,-6.077807545661926270e-01,-1.749019622802734375e+00,-1.749019622802734375e+00,2.509803771972656250e-01,-1.678431391716003418e+00,-1.654901981353759766e+00,2.509803771972656250e-01,-1.749019622802734375e+00,2.509803771972656250e-01,-1.694117665290832520e+00,-1.639215707778930664e+00,2.509803771972656250e-01,-1.749019622802734375e+00,2.588235139846801758e-01,-1.709803938865661621e+00,-1.631372570991516113e+00,-8.625312447547912598e-01,2.509803771972656250e-01,-1.749019622802734375e+00,-1.717647075653076172e+00,4.156862497329711914e-01,7.058823108673095703e-01,-1.623529434204101562e+00,-1.462624788284301758e+00,-1.644415020942687988e+00,-1.607843160629272461e+00,1.202054619789123535e-01,-1.749019622802734375e+00,2.509803771972656250e-01,-1.852474212646484375e-01,-1.592156887054443359e+00,2.588235139846801758e-01,2.509803771972656250e-01,-7.427993416786193848e-01,2.588235139846801758e-01,-1.607843160629272461e+00,-7.002125382423400879e-01,2.509803771972656250e-01,-1.749019622802734375e+00,2.509803771972656250e-01,-1.615686297416687012e+00,-8.382872939109802246e-01,2.509803771972656250e-01,-1.749019622802734375e+00,5.803921222686767578e-01,6.431372165679931641e-01,-1.709803938865661621e+00,-1.741176486015319824e+00,-1.749019622802734375e+00,2.588235139846801758e-01,-1.639215707778930664e+00,-1.701960802078247070e+00,2.509803771972656250e-01,-1.749019622802734375e+00,2.588235139846801758e-01,-1.647058844566345215e+00,-1.686274528503417969e+00,2.509803771972656250e-01,-1.749019622802734375e+00,2.509803771972656250e-01,-1.662745118141174316e+00,-1.670588254928588867e+00,2.509803771972656250e-01,-1.749019622802734375e+00,2.501907944679260254e-01,-1.670588254928588867e+00,-1.662745118141174316e+00,3.294117450714111328e-01,-1.294117689132690430e+00,7.762551307678222656e-03,-1.246191859245300293e-01
-1.019795536994934082e-01,2.588235139846801758e-01,-1.749019622802734375e+00,2.509803771972656250e-01,2.980391979217529297e-01,-1.639215707778930664e+00,-1.749019622802734375e+00,-1.749019622802734375e+00,2.509803771972656250e-01,-1.709803938865661621e+00,-1.623529434204101562e+00,-1.749019622802734375e+00,2.509803771972656250e-01,-1.749019622802734375e+00,-1.725490212440490723e+00,3.921568393707275391e-01,6.980391740798950195e-01,-3.082131743431091309e-01,-1.749019622802734375e+00,-2.131105065345764160e-01,2.246318459510803223e-01,2.588235139846801758e-01,-1.192071914672851562e+00,-8.482401371002197266e-01,2.588235139846801758e-01,-1.600000023841857910e+00,2.588235139846801758e-01,2.509803771972656250e-01,-1.749019622802734375e+00,2.588235139846801758e-01,-1.607843160629272461e+00,-1.725490212440490723e+00,2.509803771972656250e-01,-1.749019622802734375e+00,2.588235139846801758e-01,-1.623529434204101562e+00,-1.717647075653076172e+00,2.509803771972656250e-01,-1.749019622802734375e+00,5.333333015441894531e-01,6.823529005050659180e-01,-1.701960802078247070e+00,2.509803771972656250e-01,-1.749019622802734375e+00,2.509803771972656250e-01,-1.647058844566345215e+00,-1.694117665290832520e+00,2.509803771972656250e-01,-1.749019622802734375e+00,2.588235139846801758e-01,-1.654901981353759766e+00,-1.678431391716003418e+00,2.509803771972656250e-01,-1.749019622802734375e+00,2.588235139846801758e-01,-1.670588254928588867e+00,-1.670588254928588867e+00,2.509803771972656250e-01,-1.749019622802734375e+00,1.183992624282836914e-02,-1.686274528503417969e+00,-1.240792870521545410e-01,3.137254714965820312e-01,6.191009879112243652e-01,3.450980186462402344e-01,-1.001287221908569336e+00,-1.639215707778930664e+00,2.509803771972656250e-01,-1.749019622802734375e+00,2.509803771972656250e-01,-1.350042343139648438e+00,-1.631372570991516113e+00,2.509803771972656250e-01,-1.749019622802734375e+00,2.588235139846801758e-01,-1.392752885818481445e+00,-1.615686297416687012e+00,2.509803771972656250e-01,-1.749019622802734375e+00,2.509803771972656250e-01,-1.349538564682006836e-02,-1.607843160629272461e+00,2.588235139846801758e-01,2.509803771972656250e-01,-1.749019622802734375e+00,-1.741176486015319824e+00,-7.501450777053833008e-01,5.568627119064331055e-01,-1.749019622802734375e+00,-1.595397353172302246e+00,2.588235139846801758e-01,-1.600000023841857910e+00,2.666666507720947266e-01,2.509803771972656250e-01,-1.749019622802734375e+00,2.588235139846801758e-01,-1.615686297416687012e+00,-1.537515878677368164e+00,2.509803771972656250e-01,-1.749019622802734375e+00,2.509803771972656250e-01,-1.631372570991516113e+00,-1.709803938865661621e+00,2.509803771972656250e-01,-1.749019622802734375e+00,2.509803771972656250e-01,-1.639215707778930664e+00,-2.342678904533386230e-01,-1.749019622802734375e+00,3.686274290084838867e-01,7.372548580169677734e-01,-1.615686297416687012e+00,-8.742941021919250488e-01,2.509803771972656250e-01,-1.749019622802734375e+00,2.588235139846801758e-01,-1.662745118141174316e+00,-1.670588254928588867e+00,2.509803771972656250e-01,-1.749019622802734375e+00,2.509803771972656250e-01,-1.678431391716003418e+00,-1.654901981353759766e+00,2.509803771972656250e-01,-1.749019622802734375e+00,2.509803771972656250e-01,-1.686274528503417969e+00,-1.647058844566345215e+00,2.509803771972656250e-01,-1.749019622802734375e+00,-1.375870704650878906e+00,-1.701960802078247070e+00,-7.100980877876281738e-01,7.215685844421386719e-01,-1.717647075653076172e+00,2.588235139846801758e-01,-9.319452047348022461e-01,-1.623529434204101562e+00,2.509803771972656250e-01,-1.749019622802734375e+00,2.509803771972656250e-01,2.745097875595092773e-01,-1.607843160629272461e+00,2.588235139846801758e-01,-1.749019622802734375e+00,2.509803771972656250e-01,1.962141394615173340e-01,-1.600000023841857910e+00,2.588235139846801758e-01,2.509803771972656250e-01,-1.749019622802734375e+00,-1.937718987464904785e-01,-1.600000023841857910e+00,-6.335623860359191895e-01,2.509803771972656250e-01,-1.741176486015319824e+00,4.235293865203857422e-01,7.686274051666259766e-01,-7.588767409324645996e-01,2.509803771972656250e-01,-1.749019622802734375e+00,2.509803771972656250e-01,-1.623529434204101562e+00,-1.646491408348083496e+00,2.509803771972656250e-01,-1.749019622802734375e+00,2.509803771972656250e-01,-1.631372570991516113e+00,-1.701960802078247070e+00,2.509803771972656250e-01,-1.749019622802734375e+00,2.588235139846801758e-01,-1.647058844566345215e+00,-1.694117665290832520e+00,2.509803771972656250e-01,-1.749019622802734375e+00,2.588235139846801758e-01,-1.654901981353759766e+00,-2.378484606742858887e-01,-1.293079376220703125e+00,1.211008429527282715e-01,7.058823108673095703e-01,-1.670588254928588867e+00,-9.947800636291503906e-01,2.509803771972656250e-01,-1.749019622802734375e+00,2.509803771972656250e-01,-1.678431391716003418e+00,-1.654901981353759766e+00,2.509803771972656250e-01,-1.749019622802734375e+00,2.509803771972656250e-01,-1.694117665290832520e+00,-1.639215707778930664e+00,2.509803771972656250e-01,-1.749019622802734375e+00,2.588235139846801758e-01,-1.709803938865661621e+00,-1.631372570991516113e+00,2.509803771972656250e-01,2.509803771972656250e-01,-1.749019622802734375e+00,-1.717647075653076172e+00,4.156862497329711914e-01,7.058823108673095703e-01,-1.623529434204101562e+00,-1.356602311134338379e+00,1.685345172882080078e-01,-1.607843160629272461e+00,2.509803771972656250e-01,-1.749019622802734375e+00,2.509803771972656250e-01,2.588235139846801758e-01,-1.592156887054443359e+00,2.588235139846801758e-01,2.509803771972656250e-01,-1.749019622802734375e+00,2.588235139846801758e-01,-1.607843160629272461e+00,-9.743111729621887207e-01,2.509803771972656250e-01,-1.749019622802734375e+00,2.509803771972656250e-01,-1.615686297416687012e+00,-1.473216772079467773e+00,2.509803771972656250e-01,-1.749019622802734375e+00,5.803921222686767578e-01,6.431372165679931641e-01,-1.073603391647338867e+00,2.588235139846801758e-01,-1.749019622802734375e+00,2.588235139846801758e-01,-1.639215707778930664e+00,-1.701960802078247070e+00,2.509803771972656250e-01,-1.749019622802734375e+00,2.588235139846801758e-01,-1.647058844566345215e+00,-1.686274528503417969e+00,2.509803771972656250e-01,-1.749019622802734375e+00,2.509803771972656250e-01,-1.662745118141174316e+00,-1.670588254928588867e+00,2.509803771972656250e-01,-1.749019622802734375e+00,2.509803771972656250e-01,-1.355024576187133789e+00,-1.662745118141174316e+00,3.294117450714111328e-01,-1.294117689132690430e+00,-7.242554426193237305e-01,-7.272943258285522461e-01
-3.106012344360351562e-01,2.588235139846801758e-01,-7.519321441650390625e-01,2.509803771972656250e-01,2.980391979217529297e-01,-1.639215707778930664e+00,-1.749019622802734375e+00,-1.749019622802734375e+00,2.509803771972656250e-01,2.901960611343383789e-01,-1.623529434204101562e+00,2.509803771972656250e-01,2.509803771972656250e-01,-1.749019622802734375e+00,-6.011896729469299316e-01,3.921568393707275391e-01,6.980391740798950195e-01,4.392156600952148438e-01,-7.413455247879028320e-01,2.588235139846801758e-01,-1.600000023841857910e+00,-7.640352845191955566e-01,-1.749019622802734375e+00,2.509803771972656250e-01,2.588235139846801758e-01,-1.600000023841857910e+00,2.588235139846801758e-01,2.509803771972656250e-01,-5.924522876739501953e-02,2.588235139846801758e-01,-1.607843160629272461e+00,1.898341774940490723e-01,2.509803771972656250e-01,-1.749019622802734375e+00,2.588235139846801758e-01,-1.623529434204101562e+00,-1.103141665458679199e+00,2.509803771972656250e-01,-1.749019622802734375e+00,5.333333015441894531e-01,6.823529005050659180e-01,2.346873283386230469e-03,2.509803771972656250e-01,-1.749019622802734375e+00,2.509803771972656250e-01,-1.647058844566345215e+00,-1.694117665290832520e+00,2.509803771972656250e-01,-1.749019622802734375e+00,2.588235139846801758e-01,-1.654901981353759766e+00,-1.678431391716003418e+00,2.509803771972656250e-01,-1.749019622802734375e+00,2.588235139846801758e-01,-1.670588254928588867e+00,-1.670588254928588867e+00,2.509803771972656250e-01,-1.749019622802734375e+00,2.509803771972656250e-01,-6.472136974334716797e-01,3.529411554336547852e-01,3.137254714965820312e-01,7.294117212295532227e-01,3.450980186462402344e-01,3.058823347091674805e-01,-1.639215707778930664e+00,2.509803771972656250e-01,-1.749019622802734375e+00,2.509803771972656250e-01,-2.188274860382080078e-01,-1.631372570991516113e+00,2.509803771972656250e-01,-1.749019622802734375e+00,2.588235139846801758e-01,2.823529243469238281e-01,-1.615686297416687012e+00,2.509803771972656250e-01,-1.749019622802734375e+00,2.509803771972656250e-01,2.666666507720947266e-01,-1.607843160629272461e+00,2.588235139846801758e-01,2.509803771972656250e-01,-1.749019622802734375e+00,-7.100859880447387695e-01,-1.154053807258605957e+00,5.568627119064331055e-01,-2.922229766845703125e-01,-9.057048559188842773e-01,2.588235139846801758e-01,-1.600000023841857910e+00,-8.711233735084533691e-01,2.509803771972656250e-01,-1.749019622802734375e+00,2.588235139846801758e-01,-1.615686297416687012e+00,-3.342081904411315918e-01,2.509803771972656250e-01,-1.749019622802734375e+00,2.509803771972656250e-01,-1.631372570991516113e+00,-8.463276624679565430e-01,2.509803771972656250e-01,-1.749019622802734375e+00,2.509803771972656250e-01,-1.639215707778930664e+00,2.205473780632019043e-01,2.509803771972656250e-01,-1.097244262695312500e+00,7.372548580169677734e-01,-1.615686297416687012e+00,-7.876884937286376953e-01,2.509803771972656250e-01,-1.749019622802734375e+00,2.588235139846801758e-01,-1.662745118141174316e+00,-1.670588254928588867e+00,2.509803771972656250e-01,-1.749019622802734375e+00,2.509803771972656250e-01,-1.678431391716003418e+00,-1.654901981353759766e+00,2.509803771972656250e-01,-1.749019622802734375e+00,2.509803771972656250e-01,-1.686274528503417969e+00,-1.647058844566345215e+00,2.509803771972656250e-01,-1.475220203399658203e+00,2.509803771972656250e-01,-2.603021264076232910e-01,-1.529411792755126953e+00,7.215685844421386719e-01,-1.717647075653076172e+00,2.588235139846801758e-01,2.901960611343383789e-01,-1.623529434204101562e+00,2.509803771972656250e-01,-1.749019622802734375e+00,2.509803771972656250e-01,2.745097875595092773e-01,-1.607843160629272461e+00,2.588235139846801758e-01,-1.138035893440246582e+00,2.509803771972656250e-01,2.666666507720947266e-01,-1.600000023841857910e+00,2.588235139846801758e-01,2.509803771972656250e-01,2.509803771972656250e-01,2.588235139846801758e-01,-1.600000023841857910e+00,2.588235139846801758e-01,2.509803771972656250e-01,-1.741176486015319824e+00,4.235293865203857422e-01,7.686274051666259766e-01,2.823529243469238281e-01,2.509803771972656250e-01,-1.749019622802734375e+00,2.509803771972656250e-01,-1.623529434204101562e+00,-1.180597066879272461e+00,2.509803771972656250e-01,-1.749019622802734375e+00,2.509803771972656250e-01,-1.631372570991516113e+00,-1.701960802078247070e+00,2.509803771972656250e-01,-1.749019622802734375e+00,2.588235139846801758e-01,-1.647058844566345215e+00,-1.694117665290832520e+00,2.509803771972656250e-01,-1.749019622802734375e+00,2.588235139846801758e-01,-1.654901981353759766e+00,-1.644336581230163574e-01,2.509803771972656250e-01,-1.412166237831115723e+00,7.058823108673095703e-01,-1.670588254928588867e+00,-1.490049839019775391e+00,2.509803771972656250e-01,-1.749019622802734375e+00,2.509803771972656250e-01,-1.678431391716003418e+00,-1.654901981353759766e+00,2.509803771972656250e-01,-1.749019622802734375e+00,2.509803771972656250e-01,-1.694117665290832520e+00,-1.639215707778930664e+00,2.509803771972656250e-01,-1.749019622802734375e+00,2.588235139846801758e-01,2.901960611343383789e-01,-1.631372570991516113e+00,2.509803771972656250e-01,2.509803771972656250e-01,-4.671360850334167480e-01,-1.386816143989562988e+00,4.156862497329711914e-01,7.058823108673095703e-01,-9.522508382797241211e-01,2.231298685073852539e-01,2.666666507720947266e-01,-1.607843160629272461e+00,2.509803771972656250e-01,-1.749019622802734375e+00,2.509803771972656250e-01,2.588235139846801758e-01,-1.592156887054443359e+00,2.588235139846801758e-01,2.509803771972656250e-01,2.509803771972656250e-01,2.588235139846801758e-01,-1.607843160629272461e+00,2.666666507720947266e-01,2.509803771972656250e-01,-1.749019622802734375e+00,2.509803771972656250e-01,-1.615686297416687012e+00,-9.584807157516479492e-01,2.509803771972656250e-01,-1.749019622802734375e+00,5.803921222686767578e-01,6.431372165679931641e-01,2.787266969680786133e-01,2.588235139846801758e-01,-1.749019622802734375e+00,2.588235139846801758e-01,-1.639215707778930664e+00,-1.701960802078247070e+00,2.509803771972656250e-01,-1.749019622802734375e+00,2.588235139846801758e-01,-1.647058844566345215e+00,-1.686274528503417969e+00,2.509803771972656250e-01,-1.749019622802734375e+00,2.509803771972656250e-01,-1.662745118141174316e+00,-1.670588254928588867e+00,2.509803771972656250e-01,-1.749019622802734375e+00,2.509803771972656250e-01,-1.023347616195678711e+00,-1.662745118141174316e+00,3.294117450714111328e-01,-1.294117689132690430e+00,3.372548818588256836e-01,9.027302265167236328e-02
3.047104477882385254e-01,2.588235139846801758e-01,-1.749019622802734375e+00,2.219687700271606445e-01,2.980391979217529297e-01,-1.639215707778930664e+00,-1.749019622802734375e+00,-1.749019622802734375e+00,2.509803771972656250e-01,-1.709803938865661621e+00,-1.623529434204101562e+00,-3.630730509757995605e-01,2.509803771972656250e-01,-1.749019622802734375e+00,-1.725490212440490723e+00,-3.732884526252746582e-01,6.980391740798950195e-01,-5.211748480796813965e-01,-1.749019622802734375e+00,-2.108131647109985352e-01,-1.600000023841857910e+00,-4.278187155723571777e-01,-1.592696189880371094e+00,-1.345375061035156250e+00,2.588235139846801758e-01,-1.600000023841857910e+00,2.588235139846801758e-01,2.509803771972656250e-01,-1.749019622802734375e+00,2.588235139846801758e-01,-1.607843160629272461e+00,-1.492436170578002930e+00,2.509803771972656250e-01,-1.749019622802734375e+00,2.588235139846801758e-01,-1.623529434204101562e+00,-1.717647075653076172e+00,2.509803771972656250e-01,-1.749019622802734375e+00,5.333333015441894531e-01,6.823529005050659180e-01,-1.171615958213806152e+00,2.509803771972656250e-01,-1.749019622802734375e+00,2.509803771972656250e-01,-1.647058844566345215e+00,-1.694117665290832520e+00,2.509803771972656250e-01,-1.749019622802734375e+00,2.588235139846801758e-01,-1.654901981353759766e+00,-1.678431391716003418e+00,2.509803771972656250e-01,-1.749019622802734375e+00,2.588235139846801758e-01,-1.670588254928588867e+00,-1.670588254928588867e+00,2.509803771972656250e-01,-1.749019622802734375e+00,2.509803771972656250e-01,-1.686274528503417969e+00,-1.647058844566345215e+00,3.137254714965820312e-01,-1.270588278770446777e+00,3.450980186462402344e-01,-1.694117665290832520e+00,-1.639215707778930664e+00,2.509803771972656250e-01,-1.749019622802734375e+00,2.509803771972656250e-01,-1.701960802078247070e+00,-1.631372570991516113e+00,2.509803771972656250e-01,-1.749019622802734375e+00,2.588235139846801758e-01,-9.037434458732604980e-01,-1.615686297416687012e+00,2.509803771972656250e-01,-1.749019622802734375e+00,2.509803771972656250e-01,2.666666507720947266e-01,-1.607843160629272461e+00,2.588235139846801758e-01,2.509803771972656250e-01,-1.749019622802734375e+00,-1.741176486015319824e+00,-1.278431415557861328e+00,5.568627119064331055e-01,-8.983193635940551758e-01,-1.749019622802734375e+00,2.588235139846801758e-01,-1.600000023841857910e+00,-7.668277025222778320e-01,2.509803771972656250e-01,-1.749019622802734375e+00,2.588235139846801758e-01,-1.615686297416687012e+00,-1.725490212440490723e+00,2.509803771972656250e-01,-1.749019622802734375e+00,2.509803771972656250e-01,-1.631372570991516113e+00,-1.709803938865661621e+00,2.509803771972656250e-01,-1.749019622802734375e+00,2.509803771972656250e-01,-1.639215707778930664e+00,-1.701960802078247070e+00,2.509803771972656250e-01,-1.631372570991516113e+00,7.372548580169677734e-01,-1.615686297416687012e+00,-1.686274528503417969e+00,2.509803771972656250e-01,-1.749019622802734375e+00,2.588235139846801758e-01,-1.662745118141174316e+00,-1.670588254928588867e+00,2.509803771972656250e-01,-1.749019622802734375e+00,2.509803771972656250e-01,-1.678431391716003418e+00,-1.654901981353759766e+00,2.509803771972656250e-01,-1.749019622802734375e+00,2.509803771972656250e-01,-1.686274528503417969e+00,-1.647058844566345215e+00,2.509803771972656250e-01,-1.749019622802734375e+00,-1.749019622802734375e+00,-1.701960802078247070e+00,-1.529411792755126953e+00,7.215685844421386719e-01,-1.717647075653076172e+00,2.588235139846801758e-01,-2.429975569248199463e-01,-1.623529434204101562e+00,2.509803771972656250e-01,-1.749019622802734375e+00,2.509803771972656250e-01,2.745097875595092773e-01,-1.607843160629272461e+00,2.588235139846801758e-01,-1.749019622802734375e+00,9.826982021331787109e-02,2.666666507720947266e-01,-1.600000023841857910e+00,2.588235139846801758e-01,8.160173892974853516e-03,-1.749019622802734375e+00,-6.183195710182189941e-01,-1.600000023841857910e+00,-1.123500704765319824e+00,2.509803771972656250e-01,-1.741176486015319824e+00,4.235293865203857422e-01,1.801598072052001953e-01,-5.559036731719970703e-01,2.509803771972656250e-01,-1.749019622802734375e+00,2.509803771972656250e-01,-1.623529434204101562e+00,-1.426261067390441895e+00,2.509803771972656250e-01,-1.749019622802734375e+00,2.509803771972656250e-01,-1.631372570991516113e+00,-1.701960802078247070e+00,2.509803771972656250e-01,-1.749019622802734375e+00,2.588235139846801758e-01,-1.647058844566345215e+00,-1.694117665290832520e+00,2.509803771972656250e-01,-1.749019622802734375e+00,2.588235139846801758e-01,-1.654901981353759766e+00,-1.678431391716003418e+00,2.509803771972656250e-01,-1.607843160629272461e+00,7.058823108673095703e-01,-1.670588254928588867e+00,-1.662745118141174316e+00,2.509803771972656250e-01,-1.749019622802734375e+00,2.509803771972656250e-01,-1.678431391716003418e+00,-1.654901981353759766e+00,2.509803771972656250e-01,-1.749019622802734375e+00,2.509803771972656250e-01,-1.694117665290832520e+00,-1.639215707778930664e+00,2.509803771972656250e-01,-1.749019622802734375e+00,2.588235139846801758e-01,-1.709803938865661621e+00,-1.631372570991516113e+00,2.509803771972656250e-01,2.509803771972656250e-01,-1.749019622802734375e+00,-1.717647075653076172e+00,-1.223962664604187012e+00,7.058823108673095703e-01,-1.623529434204101562e+00,-3.667063713073730469e-01,2.666666507720947266e-01,-1.607843160629272461e+00,2.509803771972656250e-01,-1.749019622802734375e+00,2.285284996032714844e-01,2.588235139846801758e-01,-1.592156887054443359e+00,2.588235139846801758e-01,2.509803771972656250e-01,-1.749019622802734375e+00,2.588235139846801758e-01,-1.607843160629272461e+00,-8.846458792686462402e-01,2.509803771972656250e-01,-1.749019622802734375e+00,2.509803771972656250e-01,-1.615686297416687012e+00,-1.717647075653076172e+00,2.509803771972656250e-01,-1.749019622802734375e+00,5.803921222686767578e-01,6.431372165679931641e-01,-9.832227230072021484e-01,2.588235139846801758e-01,-1.749019622802734375e+00,2.588235139846801758e-01,-1.639215707778930664e+00,-1.701960802078247070e+00,2.509803771972656250e-01,-1.749019622802734375e+00,2.588235139846801758e-01,-1.647058844566345215e+00,-1.686274528503417969e+00,2.509803771972656250e-01,-1.749019622802734375e+00,2.509803771972656250e-01,-1.662745118141174316e+00,-1.670588254928588867e+00,2.509803771972656250e-01,-1.749019622802734375e+00,2.509803771972656250e-01,-1.670588254928588867e+00,-1.662745118141174316e+00,3.294117450714111328e-01,-1.294117689132690430e+00,-8.360260725021362305e-02,1.076152920722961426e-01
5.547362565994262695e-02,2.588235139846801758e-01,-1.749019622802734375e+00,2.509803771972656250e-01,2.980391979217529297e-01,-1.639215707778930664e+00,-1.749019622802734375e+00,-1.749019622802734375e+00,2.509803771972656250e-01,2.901960611343383789e-01,-1.623529434204101562e+00,2.509803771972656250e-01,2.509803771972656250e-01,-1.749019622802734375e+00,2.745097875595092773e-01,3.921568393707275391e-01,6.980391740798950195e-01,2.368522882461547852e-01,2.509803771972656250e-01,2.588235139846801758e-01,-1.600000023841857910e+00,2.588235139846801758e-01,-8.937135934829711914e-01,2.509803771972656250e-01,2.588235139846801758e-01,-1.600000023841857910e+00,2.588235139846801758e-01,2.509803771972656250e-01,-1.000061988830566406e+00,2.588235139846801758e-01,-1.607843160629272461e+00,2.745097875595092773e-01,2.509803771972656250e-01,-1.749019622802734375e+00,2.588235139846801758e-01,-1.623529434204101562e+00,-1.717647075653076172e+00,2.509803771972656250e-01,-1.749019622802734375e+00,5.333333015441894531e-01,6.823529005050659180e-01,-1.358828544616699219e+00,2.509803771972656250e-01,-1.749019622802734375e+00,2.509803771972656250e-01,-1.647058844566345215e+00,-1.694117665290832520e+00,2.509803771972656250e-01,-1.749019622802734375e+00,2.588235139846801758e-01,-1.654901981353759766e+00,-1.678431391716003418e+00,2.509803771972656250e-01,-1.749019622802734375e+00,2.588235139846801758e-01,-1.670588254928588867e+00,-1.670588254928588867e+00,2.509803771972656250e-01,-1.749019622802734375e+00,2.509803771972656250e-01,-1.686274528503417969e+00,3.529411554336547852e-01,3.137254714965820312e-01,-1.744963526725769043e-01,3.450980186462402344e-01,3.058823347091674805e-01,-1.639215707778930664e+00,2.509803771972656250e-01,-1.749019622802734375e+00,2.509803771972656250e-01,2.550446987152099609e-01,-1.631372570991516113e+00,2.509803771972656250e-01,-1.749019622802734375e+00,2.588235139846801758e-01,2.823529243469238281e-01,-1.615686297416687012e+00,2.509803771972656250e-01,-1.749019622802734375e+00,2.509803771972656250e-01,2.666666507720947266e-01,-1.607843160629272461e+00,2.588235139846801758e-01,2.509803771972656250e-01,-1.749019622802734375e+00,2.588235139846801758e-01,-1.593216061592102051e-01,5.568627119064331055e-01,1.295849680900573730e-01,-4.382480382919311523e-01,2.588235139846801758e-01,-1.600000023841857910e+00,2.109782099723815918e-01,2.509803771972656250e-01,-1.749019622802734375e+00,2.588235139846801758e-01,-1.615686297416687012e+00,-5.572348833084106445e-01,2.509803771972656250e-01,-1.749019622802734375e+00,2.509803771972656250e-01,-1.631372570991516113e+00,-1.176971673965454102e+00,2.509803771972656250e-01,-1.749019622802734375e+00,2.509803771972656250e-01,-1.639215707778930664e+00,-1.548774719238281250e+00,2.509803771972656250e-01,-1.413438916206359863e+00,7.372548580169677734e-01,-1.615686297416687012e+00,-7.726208567619323730e-01,2.509803771972656250e-01,-1.749019622802734375e+00,2.588235139846801758e-01,-1.662745118141174316e+00,-1.670588254928588867e+00,2.509803771972656250e-01,-1.749019622802734375e+00,2.509803771972656250e-01,-1.678431391716003418e+00,-1.654901981353759766e+00,2.509803771972656250e-01,-1.749019622802734375e+00,2.509803771972656250e-01,-1.512073040008544922e+00,-1.647058844566345215e+00,2.509803771972656250e-01,-1.749019622802734375e+00,1.856523752212524414e-01,2.980391979217529297e-01,-1.299910902976989746e+00,7.215685844421386719e-01,-1.717647075653076172e+00,2.588235139846801758e-01,2.901960611343383789e-01,-1.623529434204101562e+00,2.509803771972656250e-01,-1.749019622802734375e+00,2.509803771972656250e-01,2.745097875595092773e-01,-1.607843160629272461e+00,2.588235139846801758e-01,-5.443567633628845215e-01,2.509803771972656250e-01,2.666666507720947266e-01,-1.600000023841857910e+00,2.588235139846801758e-01,2.509803771972656250e-01,2.509803771972656250e-01,2.588235139846801758e-01,-1.600000023841857910e+00,-3.557726144790649414e-01,2.509803771972656250e-01,-1.741176486015319824e+00,4.235293865203857422e-01,7.686274051666259766e-01,-2.890416979789733887e-01,2.509803771972656250e-01,-1.749019622802734375e+00,2.509803771972656250e-01,-1.623529434204101562e+00,-1.232163429260253906e+00,2.509803771972656250e-01,-1.749019622802734375e+00,2.509803771972656250e-01,-1.631372570991516113e+00,-1.701960802078247070e+00,2.509803771972656250e-01,-1.749019622802734375e+00,2.588235139846801758e-01,-1.647058844566345215e+00,-1.694117665290832520e+00,2.509803771972656250e-01,-1.749019622802734375e+00,2.588235139846801758e-01,-1.654901981353759766e+00,-1.678431391716003418e+00,2.509803771972656250e-01,-1.567026734352111816e+00,7.058823108673095703e-01,-1.670588254928588867e+00,-1.662745118141174316e+00,2.509803771972656250e-01,-1.749019622802734375e+00,2.509803771972656250e-01,-1.678431391716003418e+00,-1.654901981353759766e+00,2.509803771972656250e-01,-1.749019622802734375e+00,2.509803771972656250e-01,-1.694117665290832520e+00,-1.639215707778930664e+00,2.509803771972656250e-01,-1.749019622802734375e+00,2.588235139846801758e-01,3.146743774414062500e-02,-1.631372570991516113e+00,2.509803771972656250e-01,2.509803771972656250e-01,-1.727893352508544922e+00,2.823529243469238281e-01,4.156862497329711914e-01,7.058823108673095703e-01,-1.623529434204101562e+00,2.509803771972656250e-01,2.666666507720947266e-01,-1.607843160629272461e+00,2.509803771972656250e-01,-1.749019622802734375e+00,2.509803771972656250e-01,2.588235139846801758e-01,-1.592156887054443359e+00,2.588235139846801758e-01,2.509803771972656250e-01,2.978861331939697266e-02,2.588235139846801758e-01,-1.607843160629272461e+00,2.666666507720947266e-01,2.509803771972656250e-01,-1.749019622802734375e+00,2.509803771972656250e-01,-1.615686297416687012e+00,-1.550454616546630859e+00,2.509803771972656250e-01,-1.749019622802734375e+00,5.803921222686767578e-01,6.431372165679931641e-01,-1.709803938865661621e+00,2.588235139846801758e-01,-1.749019622802734375e+00,2.588235139846801758e-01,-1.639215707778930664e+00,-1.701960802078247070e+00,2.509803771972656250e-01,-1.749019622802734375e+00,2.588235139846801758e-01,-1.647058844566345215e+00,-1.686274528503417969e+00,2.509803771972656250e-01,-1.749019622802734375e+00,2.509803771972656250e-01,-1.662745118141174316e+00,-1.670588254928588867e+00,2.509803771972656250e-01,-1.749019622802734375e+00,2.509803771972656250e-01,-9.155392646789550781e-01,-1.662745118141174316e+00,3.294117450714111328e-01,-1.294117689132690430e+00,3.372548818588256836e-01,2.509803771972656250e-01
2.763836979866027832e-01,2.588235139846801758e-01,-1.749019622802734375e+00,2.509803771972656250e-01,2.980391979217529297e-01,-1.639215707778930664e+00,-1.749019622802734375e+00,-1.749019622802734375e+00,2.509803771972656250e-01,-1.709803938865661621e+00,-1.623529434204101562e+00,-3.489297628402709961e-02,2.509803771972656250e-01,-1.749019622802734375e+00,-1.083923935890197754e+00,-1.607843160629272461e+00,6.980391740798950195e-01,-1.110680460929870605e+00,2.509803771972656250e-01,2.588235139846801758e-01,-1.600000023841857910e+00,1.827633976936340332e-01,-1.749019622802734375e+00,-5.756037831306457520e-01,2.588235139846801758e-01,-1.600000023841857910e+00,2.390936017036437988e-01,2.509803771972656250e-01,-1.749019622802734375e+00,2.588235139846801758e-01,-1.607843160629272461e+00,-1.243463397026062012e+00,2.509803771972656250e-01,-1.749019622802734375e+00,2.588235139846801758e-01,-1.623529434204101562e+00,-1.600481271743774414e+00,2.509803771972656250e-01,-1.749019622802734375e+00,5.333333015441894531e-01,-1.640399098396301270e-01,-1.701960802078247070e+00,2.509803771972656250e-01,-1.749019622802734375e+00,2.509803771972656250e-01,-1.647058844566345215e+00,-1.694117665290832520e+00,2.509803771972656250e-01,-1.749019622802734375e+00,2.588235139846801758e-01,-1.654901981353759766e+00,-1.678431391716003418e+00,2.509803771972656250e-01,-1.749019622802734375e+00,2.588235139846801758e-01,-1.670588254928588867e+00,-1.670588254928588867e+00,2.509803771972656250e-01,-1.749019622802734375e+00,2.509803771972656250e-01,-1.686274528503417969e+00,-5.257968306541442871e-01,3.137254714965820312e-01,-1.270588278770446777e+00,3.450980186462402344e-01,-1.694117665290832520e+00,-1.639215707778930664e+00,2.509803771972656250e-01,-1.749019622802734375e+00,2.509803771972656250e-01,-1.701960802078247070e+00,-1.631372570991516113e+00,2.509803771972656250e-01,-1.749019622802734375e+00,2.588235139846801758e-01,-3.481410145759582520e-01,-1.615686297416687012e+00,2.509803771972656250e-01,-1.749019622802734375e+00,2.509803771972656250e-01,2.666666507720947266e-01,-1.607843160629272461e+00,2.588235139846801758e-01,2.509803771972656250e-01,-1.749019622802734375e+00,-1.407328248023986816e+00,-1.278431415557861328e+00,5.568627119064331055e-01,-1.749019622802734375e+00,-1.226372957229614258e+00,2.588235139846801758e-01,-1.600000023841857910e+00,-6.508888602256774902e-01,2.509803771972656250e-01,-1.749019622802734375e+00,2.588235139846801758e-01,-1.615686297416687012e+00,-1.725490212440490723e+00,2.509803771972656250e-01,-1.749019622802734375e+00,2.509803771972656250e-01,-1.631372570991516113e+00,-1.709803938865661621e+00,2.509803771972656250e-01,-1.749019622802734375e+00,2.509803771972656250e-01,-1.639215707778930664e+00,-1.701960802078247070e+00,2.509803771972656250e-01,-1.631372570991516113e+00,7.372548580169677734e-01,-1.615686297416687012e+00,-1.686274528503417969e+00,2.509803771972656250e-01,-1.749019622802734375e+00,2.588235139846801758e-01,-1.662745118141174316e+00,-1.670588254928588867e+00,2.509803771972656250e-01,-1.749019622802734375e+00,2.509803771972656250e-01,-1.678431391716003418e+00,-1.654901981353759766e+00,2.509803771972656250e-01,-1.749019622802734375e+00,2.509803771972656250e-01,-1.686274528503417969e+00,-1.647058844566345215e+00,2.509803771972656250e-01,-1.749019622802734375e+00,-1.061815023422241211e+00,2.980391979217529297e-01,-1.529411792755126953e+00,7.215685844421386719e-01,-1.717647075653076172e+00,2.588235139846801758e-01,2.339391112327575684e-01,-1.623529434204101562e+00,2.509803771972656250e-01,-1.749019622802734375e+00,2.509803771972656250e-01,2.745097875595092773e-01,-1.607843160629272461e+00,2.588235139846801758e-01,-1.749019622802734375e+00,2.509803771972656250e-01,2.666666507720947266e-01,-1.600000023841857910e+00,2.588235139846801758e-01,-1.314583420753479004e-01,-5.020894408226013184e-01,-3.297014236450195312e-01,-1.600000023841857910e+00,8.815544843673706055e-02,2.509803771972656250e-01,-1.741176486015319824e+00,4.235293865203857422e-01,-1.473596692085266113e-01,-1.262767076492309570e+00,2.509803771972656250e-01,-1.749019622802734375e+00,2.509803771972656250e-01,-1.623529434204101562e+00,-1.717647075653076172e+00,2.509803771972656250e-01,-1.749019622802734375e+00,2.509803771972656250e-01,-1.631372570991516113e+00,-1.701960802078247070e+00,2.509803771972656250e-01,-1.749019622802734375e+00,2.588235139846801758e-01,-1.647058844566345215e+00,-1.694117665290832520e+00,2.509803771972656250e-01,-1.749019622802734375e+00,2.588235139846801758e-01,-1.654901981353759766e+00,-1.678431391716003418e+00,2.509803771972656250e-01,-1.607843160629272461e+00,7.058823108673095703e-01,-1.670588254928588867e+00,-1.662745118141174316e+00,2.509803771972656250e-01,-1.749019622802734375e+00,2.509803771972656250e-01,-1.678431391716003418e+00,-1.654901981353759766e+00,2.509803771972656250e-01,-1.749019622802734375e+00,2.509803771972656250e-01,-1.694117665290832520e+00,-1.639215707778930664e+00,2.509803771972656250e-01,-1.749019622802734375e+00,2.588235139846801758e-01,-1.709803938865661621e+00,-1.631372570991516113e+00,2.509803771972656250e-01,2.509803771972656250e-01,-1.749019622802734375e+00,-5.022298693656921387e-01,-1.584313750267028809e+00,7.058823108673095703e-01,-1.623529434204101562e+00,2.509803771972656250e-01,2.666666507720947266e-01,-1.607843160629272461e+00,2.509803771972656250e-01,-1.749019622802734375e+00,2.509803771972656250e-01,2.588235139846801758e-01,-1.592156887054443359e+00,2.588235139846801758e-01,2.509803771972656250e-01,-1.749019622802734375e+00,2.588235139846801758e-01,-1.607843160629272461e+00,-8.263741135597229004e-01,2.509803771972656250e-01,-1.749019622802734375e+00,2.509803771972656250e-01,-1.615686297416687012e+00,-1.341803789138793945e+00,2.509803771972656250e-01,-1.749019622802734375e+00,5.803921222686767578e-01,5.289441943168640137e-01,-1.709803938865661621e+00,2.588235139846801758e-01,-1.749019622802734375e+00,2.588235139846801758e-01,-1.639215707778930664e+00,-1.701960802078247070e+00,2.509803771972656250e-01,-1.749019622802734375e+00,2.588235139846801758e-01,-1.647058844566345215e+00,-1.686274528503417969e+00,2.509803771972656250e-01,-1.749019622802734375e+00,2.509803771972656250e-01,-1.662745118141174316e+00,-1.670588254928588867e+00,2.509803771972656250e-01,-1.749019622802734375e+00,2.509803771972656250e-01,-1.670588254928588867e+00,-1.662745118141174316e+00,3.294117450714111328e-01,-1.294117689132690430e+00,3.372548818588256836e-01,2.509803771972656250e-01
2.757430076599121094e-01,2.588235139846801758e-01,-1.749019622802734375e+00,2.509803771972656250e-01,2.980391979217529297e-01,-1.639215707778930664e+00,-1.749019622802734375e+00,-1.749019622802734375e+00,2.509803771972656250e-01,-1.709803938865661621e+00,-1.623529434204101562e+00,2.509803771972656250e-01,2.509803771972656250e-01,-1.749019622802734375e+00,-1.725490212440490723e+00,-1.347278833389282227e+00,6.980391740798950195e-01,-4.189323782920837402e-01,-1.742051959037780762e+00,-9.369143843650817871e-01,-1.600000023841857910e+00,2.588235139846801758e-01,-1.749019622802734375e+00,-9.145171642303466797e-01,2.588235139846801758e-01,-1.600000023841857910e+00,2.588235139846801758e-01,2.509803771972656250e-01,-1.749019622802734375e+00,2.588235139846801758e-01,-1.607843160629272461e+00,-1.080711722373962402e+00,2.509803771972656250e-01,-1.749019622802734375e+00,2.588235139846801758e-01,-1.623529434204101562e+00,-1.717647075653076172e+00,2.509803771972656250e-01,-1.749019622802734375e+00,5.333333015441894531e-01,6.823529005050659180e-01,-1.701960802078247070e+00,2.509803771972656250e-01,-1.749019622802734375e+00,2.509803771972656250e-01,-1.647058844566345215e+00,-1.694117665290832520e+00,2.509803771972656250e-01,-1.749019622802734375e+00,2.588235139846801758e-01,-1.654901981353759766e+00,-1.678431391716003418e+00,2.509803771972656250e-01,-1.749019622802734375e+00,2.588235139846801758e-01,-1.670588254928588867e+00,-1.670588254928588867e+00,2.509803771972656250e-01,-1.749019622802734375e+00,2.509803771972656250e-01,-1.686274528503417969e+00,-1.647058844566345215e+00,3.137254714965820312e-01,7.294117212295532227e-01,3.450980186462402344e-01,-1.694117665290832520e+00,-1.639215707778930664e+00,2.509803771972656250e-01,-1.749019622802734375e+00,2.509803771972656250e-01,-1.677533864974975586e+00,-1.631372570991516113e+00,2.509803771972656250e-01,-1.749019622802734375e+00,2.588235139846801758e-01,-1.946504116058349609e-01,-1.615686297416687012e+00,2.509803771972656250e-01,-1.749019622802734375e+00,2.509803771972656250e-01,2.666666507720947266e-01,-1.607843160629272461e+00,2.588235139846801758e-01,2.509803771972656250e-01,-1.749019622802734375e+00,-1.741176486015319824e+00,-1.024220943450927734e+00,5.568627119064331055e-01,-1.749019622802734375e+00,-1.235772609710693359e+00,2.588235139846801758e-01,-1.600000023841857910e+00,2.666666507720947266e-01,2.509803771972656250e-01,-1.749019622802734375e+00,2.588235139846801758e-01,-1.615686297416687012e+00,-1.725490212440490723e+00,2.509803771972656250e-01,-1.749019622802734375e+00,2.509803771972656250e-01,-1.631372570991516113e+00,-1.709803938865661621e+00,2.509803771972656250e-01,-1.749019622802734375e+00,2.509803771972656250e-01,-1.639215707778930664e+00,-1.701960802078247070e+00,-1.031421661376953125e+00,-1.631372570991516113e+00,7.372548580169677734e-01,-1.615686297416687012e+00,-1.686274528503417969e+00,2.509803771972656250e-01,-1.749019622802734375e+00,2.588235139846801758e-01,-1.662745118141174316e+00,-1.670588254928588867e+00,2.509803771972656250e-01,-1.749019622802734375e+00,2.509803771972656250e-01,-1.678431391716003418e+00,-1.654901981353759766e+00,2.509803771972656250e-01,-1.749019622802734375e+00,2.509803771972656250e-01,-1.686274528503417969e+00,-1.647058844566345215e+00,2.509803771972656250e-01,-1.749019622802734375e+00,-1.749019622802734375e+00,-9.343016743659973145e-01,-1.529411792755126953e+00,7.215685844421386719e-01,-1.717647075653076172e+00,-2.477999329566955566e-01,7.197499275207519531e-02,-1.623529434204101562e+00,2.509803771972656250e-01,-1.749019622802734375e+00,2.509803771972656250e-01,2.745097875595092773e-01,-1.607843160629272461e+00,2.588235139846801758e-01,-1.749019622802734375e+00,2.374727725982666016e-01,2.666666507720947266e-01,-1.600000023841857910e+00,2.588235139846801758e-01,-6.474703550338745117e-02,-6.214355826377868652e-01,-2.088279724121093750e-01,-1.600000023841857910e+00,-1.237705469131469727e+00,2.509803771972656250e-01,-1.741176486015319824e+00,4.235293865203857422e-01,7.686274051666259766e-01,-6.003379225730895996e-01,2.509803771972656250e-01,-1.749019622802734375e+00,2.509803771972656250e-01,-1.623529434204101562e+00,-1.717647075653076172e+00,2.509803771972656250e-01,-1.749019622802734375e+00,2.509803771972656250e-01,-1.631372570991516113e+00,-1.701960802078247070e+00,2.509803771972656250e-01,-1.749019622802734375e+00,2.588235139846801758e-01,-1.647058844566345215e+00,-1.694117665290832520e+00,2.509803771972656250e-01,-1.749019622802734375e+00,2.588235139846801758e-01,-1.654901981353759766e+00,-1.678431391716003418e+00,-4.092573523521423340e-01,-1.607843160629272461e+00,7.058823108673095703e-01,-1.670588254928588867e+00,-1.662745118141174316e+00,2.509803771972656250e-01,-1.749019622802734375e+00,2.509803771972656250e-01,-1.678431391716003418e+00,-1.654901981353759766e+00,2.509803771972656250e-01,-1.749019622802734375e+00,2.509803771972656250e-01,-1.694117665290832520e+00,-1.639215707778930664e+00,2.509803771972656250e-01,-1.749019622802734375e+00,2.588235139846801758e-01,-1.709803938865661621e+00,-1.631372570991516113e+00,2.509803771972656250e-01,2.509803771972656250e-01,-1.749019622802734375e+00,-1.717647075653076172e+00,-1.584313750267028809e+00,7.058823108673095703e-01,-1.623529434204101562e+00,-1.886506676673889160e-01,-1.554349660873413086e-01,-1.607843160629272461e+00,2.509803771972656250e-01,-1.749019622802734375e+00,2.509803771972656250e-01,2.588235139846801758e-01,-1.592156887054443359e+00,2.588235139846801758e-01,2.509803771972656250e-01,-1.749019622802734375e+00,2.588235139846801758e-01,-1.607843160629272461e+00,-3.395265936851501465e-01,2.509803771972656250e-01,-1.749019622802734375e+00,2.509803771972656250e-01,-1.615686297416687012e+00,-1.717647075653076172e+00,2.509803771972656250e-01,-1.749019622802734375e+00,5.803921222686767578e-01,6.431372165679931641e-01,-1.709803938865661621e+00,2.588235139846801758e-01,-1.749019622802734375e+00,2.588235139846801758e-01,-1.639215707778930664e+00,-1.701960802078247070e+00,2.509803771972656250e-01,-1.749019622802734375e+00,2.588235139846801758e-01,-1.647058844566345215e+00,-1.686274528503417969e+00,2.509803771972656250e-01,-1.749019622802734375e+00,2.509803771972656250e-01,-1.662745118141174316e+00,-1.670588254928588867e+00,2.509803771972656250e-01,-1.749019622802734375e+00,2.509803771972656250e-01,-1.670588254928588867e+00,-1.662745118141174316e+00,3.294117450714111328e-01,-1.294117689132690430e+00,3.372548818588256836e-01,-5.166434645652770996e-01
-3.970655202865600586e-01,2.588235139846801758e-01,-1.749019622802734375e+00,2.509803771972656250e-01,2.980391979217529297e-01,-1.639215707778930664e+00,-1.716764092445373535e+00,-1.749019622802734375e+00,2.509803771972656250e-01,-9.947199821472167969e-01,-1.623529434204101562e+00,2.509803771972656250e-01,2.509803771972656250e-01,-1.749019622802734375e+00,4.471486806869506836e-02,3.921568393707275391e-01,6.980391740798950195e-01,-1.560784339904785156e+00,-3.523271083831787109e-01,2.588235139846801758e-01,-1.600000023841857910e+00,2.588235139846801758e-01,-1.749019622802734375e+00,-1.213623285293579102e-01,2.588235139846801758e-01,-1.600000023841857910e+00,2.588235139846801758e-01,2.509803771972656250e-01,-1.749019622802734375e+00,2.588235139846801758e-01,-1.607843160629272461e+00,8.885842561721801758e-02,2.509803771972656250e-01,-1.749019622802734375e+00,2.588235139846801758e-01,-1.623529434204101562e+00,-1.275123953819274902e+00,2.509803771972656250e-01,-1.749019622802734375e+00,5.333333015441894531e-01,-7.558081150054931641e-01,-1.701960802078247070e+00,2.509803771972656250e-01,-1.749019622802734375e+00,2.509803771972656250e-01,-1.647058844566345215e+00,-1.694117665290832520e+00,2.509803771972656250e-01,-1.749019622802734375e+00,2.588235139846801758e-01,-1.654901981353759766e+00,-1.678431391716003418e+00,2.509803771972656250e-01,-1.749019622802734375e+00,2.588235139846801758e-01,-1.670588254928588867e+00,-1.670588254928588867e+00,2.509803771972656250e-01,-1.749019622802734375e+00,2.509803771972656250e-01,-1.686274528503417969e+00,3.529411554336547852e-01,3.137254714965820312e-01,7.294117212295532227e-01,3.450980186462402344e-01,-1.694117665290832520e+00,-1.639215707778930664e+00,2.509803771972656250e-01,-1.749019622802734375e+00,2.509803771972656250e-01,-9.409924149513244629e-01,-1.631372570991516113e+00,2.509803771972656250e-01,-1.749019622802734375e+00,2.588235139846801758e-01,2.823529243469238281e-01,-1.615686297416687012e+00,2.509803771972656250e-01,-1.749019622802734375e+00,2.509803771972656250e-01,2.666666507720947266e-01,-1.607843160629272461e+00,2.588235139846801758e-01,2.509803771972656250e-01,-1.749019622802734375e+00,-3.526475429534912109e-01,7.215685844421386719e-01,5.568627119064331055e-01,-1.749019622802734375e+00,-3.250087499618530273e-01,2.588235139846801758e-01,-1.600000023841857910e+00,2.666666507720947266e-01,2.509803771972656250e-01,-1.749019622802734375e+00,2.588235139846801758e-01,-1.615686297416687012e+00,-6.913183927536010742e-01,2.509803771972656250e-01,-1.749019622802734375e+00,2.509803771972656250e-01,-1.631372570991516113e+00,-1.528565764427185059e+00,2.509803771972656250e-01,-1.749019622802734375e+00,2.509803771972656250e-01,-1.639215707778930664e+00,-1.701960802078247070e+00,2.509803771972656250e-01,-2.355531454086303711e-01,7.372548580169677734e-01,-1.615686297416687012e+00,-1.686274528503417969e+00,2.509803771972656250e-01,-1.749019622802734375e+00,2.588235139846801758e-01,-1.662745118141174316e+00,-1.670588254928588867e+00,2.509803771972656250e-01,-1.749019622802734375e+00,2.509803771972656250e-01,-1.678431391716003418e+00,-1.654901981353759766e+00,2.509803771972656250e-01,-1.749019622802734375e+00,2.509803771972656250e-01,-1.686274528503417969e+00,-1.647058844566345215e+00,2.509803771972656250e-01,-1.749019622802734375e+00,-1.749019622802734375e+00,2.980391979217529297e-01,-7.956374883651733398e-01,7.215685844421386719e-01,-1.717647075653076172e+00,2.588235139846801758e-01,2.901960611343383789e-01,-1.623529434204101562e+00,2.509803771972656250e-01,-1.749019622802734375e+00,2.509803771972656250e-01,2.745097875595092773e-01,-1.607843160629272461e+00,2.588235139846801758e-01,-1.000524997711181641e+00,2.509803771972656250e-01,2.666666507720947266e-01,-1.600000023841857910e+00,2.588235139846801758e-01,2.509803771972656250e-01,2.509803771972656250e-01,2.588235139846801758e-01,-1.600000023841857910e+00,2.588235139846801758e-01,2.509803771972656250e-01,-1.741176486015319824e+00,4.235293865203857422e-01,7.686274051666259766e-01,-1.717647075653076172e+00,2.509803771972656250e-01,-1.749019622802734375e+00,2.509803771972656250e-01,-1.623529434204101562e+00,-1.717647075653076172e+00,2.509803771972656250e-01,-1.749019622802734375e+00,2.509803771972656250e-01,-1.631372570991516113e+00,-1.701960802078247070e+00,2.509803771972656250e-01,-1.749019622802734375e+00,2.588235139846801758e-01,-1.647058844566345215e+00,-1.694117665290832520e+00,2.509803771972656250e-01,-1.749019622802734375e+00,2.588235139846801758e-01,-1.654901981353759766e+00,-1.678431391716003418e+00,2.509803771972656250e-01,-7.088467478752136230e-01,7.058823108673095703e-01,-1.670588254928588867e+00,-1.662745118141174316e+00,2.509803771972656250e-01,-1.749019622802734375e+00,2.509803771972656250e-01,-1.678431391716003418e+00,-1.654901981353759766e+00,2.509803771972656250e-01,-1.749019622802734375e+00,2.509803771972656250e-01,-1.694117665290832520e+00,-1.639215707778930664e+00,2.509803771972656250e-01,-1.749019622802734375e+00,2.588235139846801758e-01,-6.765782833099365234e-03,-1.631372570991516113e+00,2.509803771972656250e-01,2.509803771972656250e-01,-1.749019622802734375e+00,2.823529243469238281e-01,4.156862497329711914e-01,7.058823108673095703e-01,-1.623529434204101562e+00,2.509803771972656250e-01,2.666666507720947266e-01,-1.607843160629272461e+00,2.509803771972656250e-01,-1.749019622802734375e+00,2.509803771972656250e-01,2.588235139846801758e-01,-1.592156887054443359e+00,2.588235139846801758e-01,2.509803771972656250e-01,-9.451047778129577637e-01,2.588235139846801758e-01,-1.607843160629272461e+00,2.666666507720947266e-01,2.509803771972656250e-01,-1.749019622802734375e+00,2.509803771972656250e-01,-1.615686297416687012e+00,-1.143161773681640625e+00,2.509803771972656250e-01,-1.749019622802734375e+00,5.803921222686767578e-01,-1.356862783432006836e+00,-1.709803938865661621e+00,2.588235139846801758e-01,-1.749019622802734375e+00,2.588235139846801758e-01,-1.639215707778930664e+00,-1.701960802078247070e+00,2.509803771972656250e-01,-1.749019622802734375e+00,2.588235139846801758e-01,-1.647058844566345215e+00,-1.686274528503417969e+00,2.509803771972656250e-01,-1.749019622802734375e+00,2.509803771972656250e-01,-1.662745118141174316e+00,-1.670588254928588867e+00,2.509803771972656250e-01,-1.749019622802734375e+00,2.509803771972656250e-01,-1.670588254928588867e+00,3.178343772888183594e-01,3.294117450714111328e-01,-1.294117689132690430e+00,-1.390163898468017578e-01,-3.619263768196105957e-01
2.860435247421264648e-01,2.588235139846801758e-01,-1.749019622802734375e+00,2.509803771972656250e-01,2.980391979217529297e-01,-1.639215707778930664e+00,-7.710543274879455566e-01,-1.749019622802734375e+00,2.509803771972656250e-01,-1.633933186531066895e+00,-1.623529434204101562e+00,2.509803771972656250e-01,2.509803771972656250e-01,-1.749019622802734375e+00,-1.436071634292602539e+00,3.921568393707275391e-01,6.980391740798950195e-01,-9.150352478027343750e-01,2.509803771972656250e-01,2.588235139846801758e-01,-1.600000023841857910e+00,2.588235139846801758e-01,-1.676046133041381836e+00,-2.236897945404052734e-01,2.588235139846801758e-01,-1.600000023841857910e+00,2.588235139846801758e-01,2.509803771972656250e-01,-1.749019622802734375e+00,2.588235139846801758e-01,-1.607843160629272461e+00,-1.471067070960998535e-01,2.509803771972656250e-01,-1.749019622802734375e+00,2.588235139846801758e-01,-1.623529434204101562e+00,-1.273405313491821289e+00,2.509803771972656250e-01,-1.749019622802734375e+00,5.333333015441894531e-01,-9.038726091384887695e-01,-1.701960802078247070e+00,2.509803771972656250e-01,-1.749019622802734375e+00,2.509803771972656250e-01,-1.647058844566345215e+00,-1.694117665290832520e+00,2.509803771972656250e-01,-1.749019622802734375e+00,2.588235139846801758e-01,-1.654901981353759766e+00,-1.678431391716003418e+00,2.509803771972656250e-01,-1.749019622802734375e+00,2.588235139846801758e-01,-1.670588254928588867e+00,-1.670588254928588867e+00,2.509803771972656250e-01,-1.749019622802734375e+00,9.580659866333007812e-02,-1.686274528503417969e+00,3.529411554336547852e-01,3.137254714965820312e-01,7.294117212295532227e-01,3.450980186462402344e-01,-9.986789226531982422e-01,-1.639215707778930664e+00,2.509803771972656250e-01,-1.749019622802734375e+00,2.509803771972656250e-01,1.659945249557495117e-01,-1.631372570991516113e+00,2.509803771972656250e-01,-1.749019622802734375e+00,2.588235139846801758e-01,2.823529243469238281e-01,-1.615686297416687012e+00,2.509803771972656250e-01,-1.749019622802734375e+00,2.509803771972656250e-01,2.666666507720947266e-01,-1.607843160629272461e+00,2.588235139846801758e-01,2.509803771972656250e-01,-1.749019622802734375e+00,2.588235139846801758e-01,-1.644524931907653809e-01,5.568627119064331055e-01,-1.298495888710021973e+00,2.509803771972656250e-01,2.588235139846801758e-01,-1.600000023841857910e+00,2.666666507720947266e-01,2.509803771972656250e-01,-1.749019622802734375e+00,2.588235139846801758e-01,-1.615686297416687012e+00,-7.269158959388732910e-01,2.509803771972656250e-01,-1.749019622802734375e+00,2.509803771972656250e-01,-1.631372570991516113e+00,-1.625440835952758789e+00,2.509803771972656250e-01,-1.749019622802734375e+00,2.509803771972656250e-01,-1.639215707778930664e+00,-1.701960802078247070e+00,2.509803771972656250e-01,-1.183972120285034180e+00,7.372548580169677734e-01,-1.615686297416687012e+00,-6.964893341064453125e-01,2.509803771972656250e-01,-1.749019622802734375e+00,2.588235139846801758e-01,-1.662745118141174316e+00,-1.670588254928588867e+00,2.509803771972656250e-01,-1.749019622802734375e+00,2.509803771972656250e-01,-1.678431391716003418e+00,-1.654901981353759766e+00,2.509803771972656250e-01,-1.749019622802734375e+00,2.509803771972656250e-01,-1.686274528503417969e+00,-1.647058844566345215e+00,2.509803771972656250e-01,-1.749019622802734375e+00,-1.749019622802734375e+00,2.980391979217529297e-01,-1.529411792755126953e+00,7.215685844421386719e-01,-1.717647075653076172e+00,2.588235139846801758e-01,2.901960611343383789e-01,-1.623529434204101562e+00,2.509803771972656250e-01,-1.749019622802734375e+00,2.509803771972656250e-01,2.745097875595092773e-01,-1.607843160629272461e+00,2.588235139846801758e-01,-1.590541839599609375e+00,2.509803771972656250e-01,2.666666507720947266e-01,-1.600000023841857910e+00,2.588235139846801758e-01,2.509803771972656250e-01,2.509803771972656250e-01,2.588235139846801758e-01,-1.600000023841857910e+00,2.588235139846801758e-01,2.509803771972656250e-01,-1.741176486015319824e+00,4.235293865203857422e-01,-1.101796030998229980e-01,-5.932074189186096191e-01,2.509803771972656250e-01,-1.749019622802734375e+00,2.509803771972656250e-01,-1.623529434204101562e+00,-1.717647075653076172e+00,2.509803771972656250e-01,-1.749019622802734375e+00,2.509803771972656250e-01,-1.631372570991516113e+00,-1.701960802078247070e+00,2.509803771972656250e-01,-1.749019622802734375e+00,2.588235139846801758e-01,-1.647058844566345215e+00,-1.694117665290832520e+00,2.509803771972656250e-01,-1.749019622802734375e+00,2.588235139846801758e-01,-1.654901981353759766e+00,-1.678431391716003418e+00,2.509803771972656250e-01,-9.515024423599243164e-01,7.058823108673095703e-01,-1.670588254928588867e+00,-6.691483855247497559e-01,2.509803771972656250e-01,-1.749019622802734375e+00,2.509803771972656250e-01,-1.678431391716003418e+00,-1.654901981353759766e+00,2.509803771972656250e-01,-1.749019622802734375e+00,2.509803771972656250e-01,-1.694117665290832520e+00,-1.639215707778930664e+00,2.509803771972656250e-01,-1.749019622802734375e+00,2.588235139846801758e-01,-4.678171277046203613e-01,-1.631372570991516113e+00,2.509803771972656250e-01,2.509803771972656250e-01,-1.749019622802734375e+00,1.040423512458801270e-01,-1.160521745681762695e+00,7.058823108673095703e-01,-1.623529434204101562e+00,2.509803771972656250e-01,2.666666507720947266e-01,-1.607843160629272461e+00,2.509803771972656250e-01,-1.749019622802734375e+00,2.509803771972656250e-01,2.588235139846801758e-01,-1.592156887054443359e+00,2.588235139846801758e-01,2.509803771972656250e-01,-1.749019622802734375e+00,2.588235139846801758e-01,-1.607843160629272461e+00,2.666666507720947266e-01,2.509803771972656250e-01,-1.749019622802734375e+00,2.509803771972656250e-01,-1.615686297416687012e+00,-1.229886651039123535e+00,2.509803771972656250e-01,-1.749019622802734375e+00,5.803921222686767578e-01,-6.912405490875244141e-01,-1.531287550926208496e+00,2.588235139846801758e-01,-1.749019622802734375e+00,2.588235139846801758e-01,-1.639215707778930664e+00,-1.701960802078247070e+00,2.509803771972656250e-01,-1.749019622802734375e+00,2.588235139846801758e-01,-1.647058844566345215e+00,-1.686274528503417969e+00,2.509803771972656250e-01,-1.749019622802734375e+00,2.509803771972656250e-01,-1.662745118141174316e+00,-1.670588254928588867e+00,2.509803771972656250e-01,-1.749019622802734375e+00,2.509803771972656250e-01,-1.670588254928588867e+00,-7.321091294288635254e-01,3.294117450714111328e-01,-1.294117689132690430e+00,2.848281264305114746e-01,-2.562761902809143066e-01
5.410767197608947754e-01,2.588235139846801758e-01,-1.749019622802734375e+00,2.509803771972656250e-01,2.980391979217529297e-01,-1.639215707778930664e+00,-1.309870839118957520e+00,-1.749019622802734375e+00,2.509803771972656250e-01,2.901960611343383789e-01,-1.623529434204101562e+00,-3.276849389076232910e-01,2.509803771972656250e-01,-1.749019622802734375e+00,-9.313623309135437012e-01,3.921568393707275391e-01,6.980391740798950195e-01,2.719031572341918945e-01,-4.503975510597229004e-01,2.588235139846801758e-01,-1.600000023841857910e+00,1.708245873451232910e-01,-1.749019622802734375e+00,-1.579232335090637207e+00,2.588235139846801758e-01,-1.600000023841857910e+00,2.588235139846801758e-01,2.509803771972656250e-01,-1.749019622802734375e+00,2.588235139846801758e-01,-1.607843160629272461e+00,-1.837146878242492676e-01,2.509803771972656250e-01,-1.749019622802734375e+00,2.588235139846801758e-01,-1.623529434204101562e+00,-1.717647075653076172e+00,2.509803771972656250e-01,-1.749019622802734375e+00,5.333333015441894531e-01,-4.268717765808105469e-02,-1.303297281265258789e+00,2.509803771972656250e-01,-1.749019622802734375e+00,2.509803771972656250e-01,-1.647058844566345215e+00,-1.694117665290832520e+00,2.509803771972656250e-01,-1.749019622802734375e+00,2.588235139846801758e-01,-1.654901981353759766e+00,-1.678431391716003418e+00,2.509803771972656250e-01,-1.749019622802734375e+00,2.588235139846801758e-01,-1.670588254928588867e+00,-1.670588254928588867e+00,2.509803771972656250e-01,-1.749019622802734375e+00,-1.749019622802734375e+00,-1.686274528503417969e+00,3.529411554336547852e-01,3.137254714965820312e-01,7.294117212295532227e-01,3.450980186462402344e-01,2.132801413536071777e-01,-1.639215707778930664e+00,2.509803771972656250e-01,-1.749019622802734375e+00,2.509803771972656250e-01,-1.179657578468322754e+00,-1.631372570991516113e+00,2.509803771972656250e-01,-1.749019622802734375e+00,2.588235139846801758e-01,2.823529243469238281e-01,-1.615686297416687012e+00,2.509803771972656250e-01,-1.749019622802734375e+00,2.509803771972656250e-01,2.666666507720947266e-01,-1.607843160629272461e+00,-1.145398020744323730e-01,2.509803771972656250e-01,-1.749019622802734375e+00,2.588235139846801758e-01,-6.088450551033020020e-01,5.568627119064331055e-01,2.082047462463378906e-01,-1.749019622802734375e+00,2.588235139846801758e-01,-1.600000023841857910e+00,-6.832509636878967285e-01,-1.022664427757263184e+00,-1.749019622802734375e+00,2.588235139846801758e-01,-1.615686297416687012e+00,-4.497491121292114258e-01,2.509803771972656250e-01,-1.749019622802734375e+00,2.509803771972656250e-01,-1.631372570991516113e+00,-1.378857493400573730e+00,2.509803771972656250e-01,-1.749019622802734375e+00,2.509803771972656250e-01,-1.639215707778930664e+00,-1.701960802078247070e+00,2.509803771972656250e-01,-3.787749409675598145e-01,7.372548580169677734e-01,-1.615686297416687012e+00,-1.667342782020568848e-01,2.509803771972656250e-01,-1.749019622802734375e+00,2.588235139846801758e-01,-1.662745118141174316e+00,-1.670588254928588867e+00,2.509803771972656250e-01,-1.749019622802734375e+00,2.509803771972656250e-01,-1.678431391716003418e+00,-1.654901981353759766e+00,2.509803771972656250e-01,-1.749019622802734375e+00,2.509803771972656250e-01,-1.686274528503417969e+00,-1.647058844566345215e+00,2.509803771972656250e-01,-1.749019622802734375e+00,-1.749019622802734375e+00,2.980391979217529297e-01,-1.529411792755126953e+00,7.215685844421386719e-01,-1.717647075653076172e+00,2.588235139846801758e-01,2.901960611343383789e-01,-1.623529434204101562e+00,2.509803771972656250e-01,-1.749019622802734375e+00,2.509803771972656250e-01,2.745097875595092773e-01,-1.607843160629272461e+00,2.588235139846801758e-01,-1.749019622802734375e+00,2.509803771972656250e-01,2.666666507720947266e-01,-1.600000023841857910e+00,2.588235139846801758e-01,-1.918613910675048828e-03,-3.416606783866882324e-01,2.588235139846801758e-01,-1.600000023841857910e+00,-2.278738021850585938e-01,2.509803771972656250e-01,-1.741176486015319824e+00,4.235293865203857422e-01,-1.228289604187011719e-01,2.823529243469238281e-01,2.509803771972656250e-01,-1.749019622802734375e+00,2.509803771972656250e-01,-1.623529434204101562e+00,-1.717647075653076172e+00,2.509803771972656250e-01,-1.749019622802734375e+00,2.509803771972656250e-01,-1.631372570991516113e+00,-1.701960802078247070e+00,2.509803771972656250e-01,-1.749019622802734375e+00,2.588235139846801758e-01,-1.647058844566345215e+00,-1.694117665290832520e+00,2.509803771972656250e-01,-1.749019622802734375e+00,2.588235139846801758e-01,-1.654901981353759766e+00,-1.678431391716003418e+00,2.509803771972656250e-01,-5.184700489044189453e-01,7.058823108673095703e-01,-1.670588254928588867e+00,-2.826409935951232910e-01,2.509803771972656250e-01,-1.749019622802734375e+00,2.509803771972656250e-01,-1.678431391716003418e+00,-1.654901981353759766e+00,2.509803771972656250e-01,-1.749019622802734375e+00,2.509803771972656250e-01,-1.694117665290832520e+00,-1.639215707778930664e+00,2.509803771972656250e-01,-1.749019622802734375e+00,2.588235139846801758e-01,-5.212104916572570801e-01,-1.631372570991516113e+00,2.509803771972656250e-01,2.509803771972656250e-01,-1.749019622802734375e+00,1.164656877517700195e-02,4.156862497329711914e-01,7.058823108673095703e-01,-1.623529434204101562e+00,-7.436949014663696289e-02,2.666666507720947266e-01,-1.607843160629272461e+00,2.230750918388366699e-01,-1.749019622802734375e+00,2.509803771972656250e-01,2.588235139846801758e-01,-1.592156887054443359e+00,2.588235139846801758e-01,2.509803771972656250e-01,-1.749019622802734375e+00,2.588235139846801758e-01,-1.607843160629272461e+00,2.666666507720947266e-01,2.509803771972656250e-01,-1.749019622802734375e+00,2.509803771972656250e-01,-1.615686297416687012e+00,-1.717647075653076172e+00,2.509803771972656250e-01,-1.749019622802734375e+00,5.803921222686767578e-01,3.417695164680480957e-01,-1.289463400840759277e+00,2.588235139846801758e-01,-1.749019622802734375e+00,2.588235139846801758e-01,-1.639215707778930664e+00,-1.701960802078247070e+00,2.509803771972656250e-01,-1.749019622802734375e+00,2.588235139846801758e-01,-1.647058844566345215e+00,-1.686274528503417969e+00,2.509803771972656250e-01,-1.749019622802734375e+00,2.509803771972656250e-01,-1.662745118141174316e+00,-1.670588254928588867e+00,2.509803771972656250e-01,-1.749019622802734375e+00,2.151346802711486816e-01,-1.670588254928588867e+00,-1.662745118141174316e+00,3.294117450714111328e-01,-1.294117689132690430e+00,-4.808762669563293457e-01,7.222121953964233398e-02
1.444022059440612793e-01,2.588235139846801758e-01,-1.749019622802734375e+00,2.509803771972656250e-01,2.980391979217529297e-01,-1.639215707778930664e+00,-1.715842604637145996e+00,-1.749019622802734375e+00,2.509803771972656250e-01,-3.752638697624206543e-01,-1.623529434204101562e+00,-1.749019622802734375e+00,2.509803771972656250e-01,-1.749019622802734375e+00,-1.375993013381958008e+00,3.921568393707275391e-01,6.980391740798950195e-01,4.392156600952148438e-01,-7.201212644577026367e-02,2.588235139846801758e-01,-1.600000023841857910e+00,-5.335058569908142090e-01,-1.201718568801879883e+00,2.509803771972656250e-01,2.588235139846801758e-01,-1.600000023841857910e+00,2.588235139846801758e-01,2.509803771972656250e-01,-1.749019622802734375e+00,2.588235139846801758e-01,-1.607843160629272461e+00,-3.477931618690490723e-01,2.509803771972656250e-01,-1.749019622802734375e+00,2.588235139846801758e-01,-1.623529434204101562e+00,-1.717647075653076172e+00,2.509803771972656250e-01,-1.749019622802734375e+00,5.333333015441894531e-01,-3.489664793014526367e-01,-1.701960802078247070e+00,2.509803771972656250e-01,-1.749019622802734375e+00,2.509803771972656250e-01,-1.647058844566345215e+00,-1.694117665290832520e+00,2.509803771972656250e-01,-1.749019622802734375e+00,2.588235139846801758e-01,-1.654901981353759766e+00,-1.678431391716003418e+00,2.509803771972656250e-01,-1.749019622802734375e+00,2.588235139846801758e-01,-1.670588254928588867e+00,-1.670588254928588867e+00,2.509803771972656250e-01,-1.362587809562683105e+00,-5.555996894836425781e-01,-1.686274528503417969e+00,3.529411554336547852e-01,3.137254714965820312e-01,7.294117212295532227e-01,3.450980186462402344e-01,3.058823347091674805e-01,-1.639215707778930664e+00,2.509803771972656250e-01,-1.749019622802734375e+00,2.509803771972656250e-01,5.831348896026611328e-02,-1.631372570991516113e+00,2.509803771972656250e-01,-1.749019622802734375e+00,2.588235139846801758e-01,2.823529243469238281e-01,-1.615686297416687012e+00,2.509803771972656250e-01,-1.749019622802734375e+00,2.509803771972656250e-01,2.666666507720947266e-01,-1.607843160629272461e+00,-5.913954377174377441e-01,2.509803771972656250e-01,-1.749019622802734375e+00,2.588235139846801758e-01,-1.089816093444824219e+00,5.568627119064331055e-01,4.051756858825683594e-02,-1.127576828002929688e+00,2.588235139846801758e-01,-1.600000023841857910e+00,2.666666507720947266e-01,-1.769953966140747070e-02,-6.884016394615173340e-01,2.588235139846801758e-01,-1.615686297416687012e+00,-7.477205395698547363e-01,2.509803771972656250e-01,-1.749019622802734375e+00,2.509803771972656250e-01,-1.631372570991516113e+00,-1.457470417022705078e+00,2.509803771972656250e-01,-1.749019622802734375e+00,2.509803771972656250e-01,-1.639215707778930664e+00,-1.701960802078247070e+00,2.509803771972656250e-01,3.686274290084838867e-01,7.372548580169677734e-01,-1.615686297416687012e+00,-4.082812666893005371e-01,-6.807080507278442383e-01,-1.749019622802734375e+00,2.588235139846801758e-01,-1.662745118141174316e+00,-1.670588254928588867e+00,2.509803771972656250e-01,-1.749019622802734375e+00,2.509803771972656250e-01,-1.678431391716003418e+00,-1.654901981353759766e+00,2.509803771972656250e-01,-1.749019622802734375e+00,2.509803771972656250e-01,-1.686274528503417969e+00,-1.647058844566345215e+00,2.509803771972656250e-01,-1.028971910476684570e+00,-1.749019622802734375e+00,2.980391979217529297e-01,-2.601891160011291504e-01,7.215685844421386719e-01,-1.717647075653076172e+00,2.588235139846801758e-01,2.901960611343383789e-01,-1.623529434204101562e+00,2.509803771972656250e-01,-1.749019622802734375e+00,2.509803771972656250e-01,2.745097875595092773e-01,-1.607843160629272461e+00,2.588235139846801758e-01,-1.749019622802734375e+00,2.509803771972656250e-01,2.666666507720947266e-01,-1.600000023841857910e+00,2.588235139846801758e-01,2.509803771972656250e-01,2.509803771972656250e-01,2.588235139846801758e-01,-1.600000023841857910e+00,-2.227291464805603027e-01,2.509803771972656250e-01,-1.741176486015319824e+00,4.235293865203857422e-01,-1.231372594833374023e+00,-7.155163884162902832e-01,2.509803771972656250e-01,-1.749019622802734375e+00,2.509803771972656250e-01,-1.623529434204101562e+00,-6.757749915122985840e-01,2.509803771972656250e-01,-1.749019622802734375e+00,2.509803771972656250e-01,-1.631372570991516113e+00,-1.701960802078247070e+00,2.509803771972656250e-01,-1.749019622802734375e+00,2.588235139846801758e-01,-1.647058844566345215e+00,-1.694117665290832520e+00,2.509803771972656250e-01,-1.749019622802734375e+00,2.588235139846801758e-01,-1.475512385368347168e+00,-1.678431391716003418e+00,2.509803771972656250e-01,3.921568393707275391e-01,7.058823108673095703e-01,-1.670588254928588867e+00,-4.723896384239196777e-01,-7.426515221595764160e-01,-1.749019622802734375e+00,2.509803771972656250e-01,-1.678431391716003418e+00,-1.654901981353759766e+00,2.509803771972656250e-01,-1.749019622802734375e+00,2.509803771972656250e-01,-1.694117665290832520e+00,-1.639215707778930664e+00,2.509803771972656250e-01,-1.749019622802734375e+00,2.588235139846801758e-01,2.901960611343383789e-01,-1.631372570991516113e+00,2.509803771972656250e-01,2.509803771972656250e-01,-1.749019622802734375e+00,4.139679670333862305e-02,4.156862497329711914e-01,7.058823108673095703e-01,-1.423282861709594727e+00,9.149765968322753906e-02,2.666666507720947266e-01,-1.607843160629272461e+00,2.509803771972656250e-01,-1.749019622802734375e+00,2.509803771972656250e-01,2.588235139846801758e-01,-1.592156887054443359e+00,2.588235139846801758e-01,2.509803771972656250e-01,-3.703033328056335449e-01,2.588235139846801758e-01,-1.607843160629272461e+00,2.666666507720947266e-01,2.509803771972656250e-01,-1.749019622802734375e+00,2.509803771972656250e-01,-1.615686297416687012e+00,-1.717647075653076172e+00,2.509803771972656250e-01,-1.749019622802734375e+00,5.803921222686767578e-01,-1.440397500991821289e-01,-1.709803938865661621e+00,2.588235139846801758e-01,-1.749019622802734375e+00,2.588235139846801758e-01,-1.639215707778930664e+00,-1.701960802078247070e+00,2.509803771972656250e-01,-1.749019622802734375e+00,2.588235139846801758e-01,-1.647058844566345215e+00,-1.686274528503417969e+00,2.509803771972656250e-01,-1.749019622802734375e+00,2.509803771972656250e-01,-1.662745118141174316e+00,-1.670588254928588867e+00,2.509803771972656250e-01,-1.749019622802734375e+00,2.509803771972656250e-01,-1.670588254928588867e+00,-8.928537964820861816e-01,3.294117450714111328e-01,-1.294117689132690430e+00,-5.026727914810180664e-02,2.509803771972656250e-01
